298
294
299
296
296
296
298
297
302
304
301
308
308
310
306
305
309
306
304
341
372
318
309
308
308
308
307
306
312
312
311
311
312
317
316
320
320
319
316
311
316
320
315
318
318
316
317
319
321
324
319
319
317
323
320
324
322
325
324
316
317
324
315
354
379
320
316
310
310
313
309
308
311
315
314
313
319
318
320
320
320
317
313
312
310
307
309
306
309
310
309
304
307
308
310
309
306
308
311
310
304
306
310
304
333
355
311
311
306
307
305
309
311
313
311
318
320
320
320
318
322
316
317
317
317
311
317
316
314
316
317
319
317
317
315
324
317
317
320
317
314
313
311
317
360
340
311
313
313
310
307
312
311
312
311
314
320
313
320
318
319
311
311
314
316
315
312
311
316
313
315
314
315
312
314
313
318
317
314
312
318
313
313
352
361
314
317
310
314
311
309
314
313
314
315
314
319
317
316
314
316
314
311
311
312
311
310
313
312
310
310
309
314
314
309
312
316
313
318
306
307
311
314
357
345
308
307
307
310
312
307
307
313
312
312
315
316
317
316
315
311
315
313
312
312
314
308
312
312
310
313
310
310
313
313
310
314
315
317
315
310
308
317
311
309
338
361
312
307
310
306
308
306
308
310
310
306
306
308
309
307
310
306
304
302
302
304
306
303
306
308
307
309
308
310
309
308
309
314
315
310
317
314
316
320
314
321
319
313
315
313
309
344
374
322
316
314
311
310
316
313
313
314
313
312
310
311
312
314
313
312
309
305
307
306
312
312
311
312
311
310
309
310
309
314
311
308
310
314
313
313
315
320
319
315
316
315
314
311
335
378
317
312
307
313
309
307
310
312
309
314
312
317
316
314
313
312
310
308
311
311
306
305
310
314
311
310
308
312
311
314
311
314
310
311
311
310
317
318
317
316
311
315
312
309
331
378
321
311
311
309
305
305
312
311
311
313
314
319
315
317
316
315
310
308
307
309
310
308
307
311
309
310
310
310
309
304
315
311
310
305
312
314
310
309
306
308
311
307
327
367
309
309
305
312
306
306
308
311
312
309
316
316
322
317
317
312
312
309
308
312
307
310
311
312
311
311
306
304
317
312
310
312
309
312
315
315
316
311
308
308
309
323
370
322
315
313
310
311
309
310
312
315
317
320
318
319
322
318
316
314
311
310
307
307
312
311
309
312
311
310
311
312
313
315
313
312
314
317
318
316
322
318
312
309
312
315
332
367
319
313
310
310
311
310
313
311
316
317
318
322
321
321
321
317
320
315
315
311
310
315
315
314
312
315
314
316
310
318
319
316
313
318
315
316
317
315
325
321
320
319
319
314
317
334
376
321
315
309
316
314
310
314
314
315
317
317
318
321
318
316
318
316
311
313
312
312
312
311
312
310
312
312
316
314
310
309
315
315
312
311
317
312
312
310
312
313
311
311
316
316
313
307
310
310
313
369
347
312
314
309
306
313
309
312
313
318
315
320
320
322
326
321
315
318
315
316
315
314
316
317
314
315
316
319
314
317
318
319
315
317
317
317
315
314
317
319
317
316
319
318
319
320
320
318
317
312
315
374
354
313
315
311
312
309
315
314
315
316
317
321
319
320
320
320
316
309
314
312
313
309
307
310
308
310
310
315
311
308
309
309
316
308
313
312
310
310
310
316
310
315
313
317
311
311
307
308
315
376
335
306
314
307
311
312
315
310
311
313
317
317
317
318
321
317
315
309
312
311
312
308
314
312
311
306
314
311
313
309
314
311
310
311
309
314
308
314
313
317
316
313
313
314
312
308
354
348
307
313
312
312
311
305
310
317
315
315
317
316
320
318
319
315
312
307
309
312
308
311
309
310
309
308
311
311
313
311
305
309
311
310
310
310
310
313
312
314
311
311
309
306
317
376
336
309
310
306
307
307
310
309
310
311
314
314
317
314
316
315
307
305
308
306
308
306
305
309
305
306
310
312
308
310
307
310
311
307
311
311
313
311
313
316
311
305
312
308
309
370
341
311
310
306
307
308
312
308
312
311
314
314
318
321
320
315
315
309
309
305
305
307
309
308
305
307
309
305
306
309
308
309
307
304
307
305
304
306
308
307
297
307
302
300
304
356
312
299
297
296
295
299
300
303
305
302
301
310
311
311
313
306
307
310
305
304
308
308
306
306
317
319
320
319
319
321
325
324
322
320
320
309
326
326
324
322
319
317
318
318
315
341
376
322
313
309
308
311
305
311
311
307
310
311
315
311
314
315
309
307
306
303
308
305
302
305
309
304
307
307
308
304
307
305
307
308
309
310
309
311
306
312
315
312
310
309
309
305
313
378
347
310
306
301
305
301
301
302
302
307
301
307
306
309
306
307
308
307
307
302
304
304
307
304
324
329
328
329
330
334
322
317
317
315
318
317
317
320
319
318
316
319
319
316
314
311
343
382
320
315
314
313
310
310
315
312
307
315
318
314
318
318
322
317
309
318
313
311
314
310
311
309
309
313
310
312
309
307
308
311
308
311
311
308
309
310
311
312
304
307
300
308
363
315
298
296
294
289
294
291
295
289
296
297
298
295
302
301
297
294
295
293
299
297
296
300
299
300
300
306
307
305
306
304
308
311
308
311
315
311
310
314
312
310
309
331
381
326
309
312
315
308
310
313
317
317
315
317
317
322
315
317
322
315
311
310
312
304
307
305
308
304
301
302
304
306
301
303
303
307
300
306
302
306
299
299
300
298
363
335
295
291
286
286
288
290
291
290
294
299
299
299
301
306
304
304
302
303
303
309
306
308
310
312
311
309
316
311
312
316
315
315
314
325
318
312
309
314
307
310
376
346
311
307
302
306
309
307
310
309
312
314
313
314
318
318
317
314
314
311
306
310
312
312
311
315
311
311
310
308
308
310
305
316
315
317
316
312
312
319
308
329
392
335
313
306
315
309
313
310
315
313
317
316
315
320
320
316
321
320
318
317
316
320
322
318
320
321
320
317
317
321
319
320
321
325
322
316
316
317
317
309
348
381
326
314
309
310
310
306
307
316
313
313
312
314
311
315
314
307
314
308
301
309
308
307
305
308
305
309
305
304
306
304
298
309
307
304
300
295
299
294
318
360
304
298
298
294
300
299
295
303
302
305
304
308
307
312
311
308
304
308
303
305
301
304
307
306
304
309
307
306
308
310
307
311
312
308
307
306
304
305
351
351
305
310
305
304
300
305
308
308
308
309
313
312
312
313
309
309
317
316
318
324
321
321
327
318
321
321
324
323
325
324
327
329
326
322
329
325
329
326
344
404
350
330
329
328
326
324
332
330
327
327
325
332
333
332
335
332
327
322
323
327
323
323
321
327
323
323
320
324
328
324
323
328
326
325
327
325
323
321
320
321
389
362
316
318
314
315
310
315
312
316
314
318
322
320
316
323
323
317
315
315
313
312
317
314
315
314
314
315
318
320
313
317
315
317
317
312
318
313
312
312
316
309
316
368
346
314
317
313
320
316
317
316
319
319
323
321
322
324
320
323
316
318
319
312
314
317
313
316
314
314
316
309
312
310
304
309
302
313
313
312
310
313
313
318
316
313
313
311
314
315
332
383
326
319
319
318
318
316
317
321
311
320
320
318
322
317
326
322
314
320
316
319
313
318
318
318
317
315
320
320
315
319
318
323
315
321
319
319
322
318
322
320
322
321
320
321
317
323
320
317
315
320
375
359
318
313
320
322
320
318
317
318
316
323
320
320
319
321
320
319
314
311
314
314
314
313
315
317
317
313
315
312
318
319
314
319
317
314
311
317
321
321
313
318
319
319
316
317
307
314
306
302
328
370
317
307
305
305
302
304
308
310
308
309
308
316
314
314
320
316
316
315
315
316
314
315
316
321
320
316
322
327
321
323
324
324
328
323
327
325
324
326
329
325
335
328
325
328
324
328
322
342
397
338
323
318
322
314
314
318
319
317
317
319
322
321
322
323
322
317
316
310
318
312
308
311
314
307
315
309
314
313
310
305
311
310
306
309
310
313
308
309
308
308
303
306
309
369
333
296
309
302
302
307
306
315
313
310
321
318
319
320
321
321
315
310
310
314
311
314
313
313
313
308
314
313
309
308
309
309
313
311
317
311
313
308
309
310
309
340
358
310
308
307
303
308
306
311
308
311
312
309
309
314
314
312
308
307
310
307
310
306
306
307
305
310
310
307
305
305
310
306
306
307
309
313
305
304
306
297
313
360
309
298
296
292
294
296
293
293
295
298
297
295
297
302
301
297
295
298
297
297
297
299
301
303
300
302
305
297
302
310
307
310
310
312
306
310
306
313
307
322
376
331
311
311
308
307
310
308
306
322
321
321
322
322
323
319
325
320
317
321
314
321
317
325
318
320
322
320
320
320
324
323
322
325
328
323
324
324
324
320
368
375
326
322
319
315
319
316
319
317
321
319
317
318
323
320
320
321
315
317
318
315
315
316
315
317
316
319
317
316
316
320
324
318
320
325
318
319
320
319
318
362
371
322
322
314
313
315
313
313
310
312
317
313
307
317
314
314
313
311
308
310
305
308
310
305
310
315
312
317
315
315
314
321
315
321
323
317
314
315
320
313
359
376
319
316
313
311
312
314
315
311
317
316
319
317
317
321
322
317
318
317
316
312
319
319
316
318
313
322
318
314
312
323
315
318
317
315
309
313
313
311
315
366
324
305
314
309
306
313
314
313
317
330
332
330
333
332
334
331
329
324
328
321
322
313
326
325
319
317
321
315
321
319
322
315
320
314
309
321
311
314
350
366
315
314
314
311
314
312
319
316
316
312
315
313
309
314
307
314
306
303
299
307
304
305
306
304
305
307
306
311
310
310
312
315
315
304
310
308
302
328
375
327
313
311
305
316
315
312
311
316
314
312
310
320
312
316
310
312
307
308
307
314
312
310
310
308
319
313
310
317
315
315
318
323
318
315
309
311
313
331
374
322
316
312
307
310
310
315
311
310
311
307
313
308
316
316
314
306
311
304
310
306
307
306
307
305
310
307
309
308
307
309
309
313
313
311
310
309
304
322
376
321
309
308
306
304
308
310
310
308
308
313
313
311
315
316
317
313
312
314
313
314
309
310
304
302
299
296
296
290
288
292
298
301
294
296
297
295
295
317
364
308
299
296
301
298
302
301
306
304
306
307
310
311
310
308
307
313
301
303
303
304
307
303
307
308
309
304
313
314
314
314
316
320
312
314
319
314
314
373
354
317
314
307
306
309
310
315
309
312
314
310
304
311
311
309
305
305
301
303
299
308
308
303
305
305
304
305
298
298
306
304
304
301
301
307
300
298
362
354
304
301
298
302
295
300
302
301
295
305
307
308
308
310
311
317
311
311
311
308
312
311
311
314
316
317
317
324
324
326
334
335
334
322
337
341
334
373
413
356
340
336
335
329
344
338
337
335
336
332
341
330
324
318
315
324
322
317
314
320
322
318
312
312
317
309
319
315
318
313
324
317
316
320
312
305
356
388
315
311
309
304
300
305
302
304
300
306
305
300
308
304
305
303
298
294
300
303
298
296
298
295
296
303
301
298
297
299
297
309
296
290
290
285
291
294
383
323
296
290
291
295
292
296
298
297
301
299
299
304
304
305
306
310
304
302
302
304
310
303
297
303
304
300
298
304
305
307
308
307
306
306
300
303
301
329
382
311
300
298
298
296
295
301
297
305
304
300
294
301
296
305
294
297
287
291
290
288
294
298
302
303
309
306
312
310
319
320
320
321
320
316
319
311
336
399
331
320
316
314
310
309
314
314
312
313
315
320
315
320
318
315
313
308
308
304
309
304
304
305
306
299
298
302
303
298
305
301
297
307
304
299
335
365
305
306
313
306
310
313
312
319
317
324
325
324
325
330
326
329
323
322
322
322
323
326
326
323
324
325
327
330
328
327
333
332
325
325
326
323
334
383
331
323
323
320
321
316
319
320
322
323
323
321
322
324
325
317
311
316
313
313
312
315
313
312
314
318
314
314
318
321
319
315
318
317
316
314
318
363
354
309
311
311
310
313
308
314
315
310
310
320
315
316
309
311
303
296
303
298
304
298
295
299
301
304
301
302
304
310
306
310
314
309
307
309
310
314
348
361
312
312
311
307
317
314
312
310
314
316
314
316
320
319
321
316
316
315
317
316
315
317
315
313
317
314
311
312
312
316
316
312
317
317
314
311
311
315
308
320
374
328
312
308
305
310
306
307
310
312
309
308
309
315
313
312
311
309
303
307
307
308
310
304
308
310
310
312
310
306
315
313
312
312
310
323
308
316
312
312
312
314
378
347
313
306
314
309
309
308
310
310
315
310
316
314
307
313
310
314
309
302
310
308
309
302
309
306
309
307
312
310
306
303
315
314
316
314
312
307
316
310
307
344
375
314
310
306
308
305
307
308
315
307
313
317
318
309
318
319
314
313
308
306
312
308
308
311
310
313
307
314
309
309
307
307
313
310
305
301
308
302
299
320
363
312
298
298
298
298
294
298
302
302
304
302
297
307
303
302
304
300
305
298
303
301
298
300
304
304
300
301
305
308
308
310
307
311
311
305
308
308
301
334
370
315
306
301
305
303
299
300
298
304
305
303
304
306
311
309
310
309
309
306
305
305
305
305
307
305
305
306
304
307
312
314
308
306
302
311
304
302
368
357
303
303
302
298
300
298
301
302
299
302
304
305
306
306
304
305
299
292
297
304
299
297
296
302
297
299
294
305
298
304
301
302
293
285
298
291
354
347
292
300
295
297
299
300
302
303
304
307
311
307
310
313
319
311
310
306
315
310
307
311
310
312
311
310
315
313
311
317
314
309
305
308
311
369
353
305
307
307
302
307
306
305
309
307
314
311
312
316
313
312
306
305
309
306
305
306
310
307
310
300
308
311
311
307
305
307
301
302
301
319
361
308
303
304
302
298
301
307
305
301
305
305
308
296
306
304
309
299
298
300
300
300
299
303
305
299
302
311
308
310
307
308
302
309
299
314
373
330
311
310
306
304
310
311
311
312
308
316
314
316
313
313
310
309
306
306
307
311
307
303
312
304
308
305
310
314
309
310
306
304
305
300
337
361
306
300
302
301
298
290
299
297
300
297
300
299
305
302
305
304
300
303
299
304
302
300
300
306
301
304
309
308
310
311
308
308
310
306
307
300
330
373
317
309
304
308
300
306
304
305
307
306
311
307
307
306
308
311
302
302
304
303
301
304
307
309
303
305
305
306
306
306
310
308
303
306
309
302
310
361
326
310
310
304
303
312
310
308
313
306
318
308
312
310
304
296
303
306
300
299
302
299
298
298
302
302
299
299
298
303
306
302
301
301
301
290
304
365
314
300
291
293
291
295
293
291
296
297
296
299
310
308
306
307
308
301
303
309
307
306
301
304
305
303
306
307
310
311
309
308
308
308
306
302
352
356
303
304
304
306
300
301
305
304
301
306
306
309
305
306
308
303
301
300
301
300
302
300
297
305
300
300
301
302
305
306
303
302
303
297
296
325
358
309
302
300
295
298
298
304
301
302
302
302
308
306
310
310
307
305
302
301
303
308
292
307
307
305
299
303
297
305
303
305
299
300
295
291
339
341
293
291
293
290
287
291
292
292
295
290
292
295
290
297
296
292
291
285
289
294
292
291
294
291
292
291
304
302
302
301
302
302
301
298
316
371
315
301
302
302
298
294
308
304
304
303
305
308
312
307
309
309
307
301
299
300
301
300
296
299
301
295
299
302
306
297
297
297
296
293
307
356
305
295
300
304
300
301
302
304
305
309
311
316
316
319
314
312
316
309
311
309
312
313
313
310
311
312
311
309
320
314
308
307
307
316
320
369
323
319
313
311
316
316
316
312
315
320
315
315
320
319
320
316
311
315
312
308
312
311
313
312
306
312
311
306
309
318
312
310
311
314
304
312
353
342
308
305
306
311
311
310
307
310
310
315
310
315
314
316
311
310
312
307
308
307
310
309
305
310
303
314
307
308
306
311
310
307
312
311
309
307
310
305
309
300
314
365
330
304
306
302
302
300
301
304
298
300
303
305
306
306
307
308
299
301
304
306
309
306
306
312
309
313
312
315
316
313
313
316
315
314
313
317
317
315
313
317
318
317
317
321
318
320
317
324
323
322
318
320
322
318
312
320
365
355
311
315
314
315
309
315
313
315
312
314
318
316
311
310
312
309
304
304
306
302
301
297
301
302
303
303
308
307
305
306
308
310
311
311
310
314
310
307
312
311
311
310
310
313
316
313
312
319
316
317
313
315
311
322
380
330
319
310
309
311
306
309
311
312
314
310
301
305
310
303
301
298
297
297
297
299
299
297
296
296
299
307
301
305
305
308
304
313
306
311
310
310
315
311
308
313
313
312
309
314
313
319
313
313
318
314
313
306
329
385
330
312
311
304
311
306
310
311
308
311
312
315
314
312
318
313
312
305
307
307
308
307
310
314
309
311
311
309
309
307
308
311
312
310
311
307
316
312
310
309
312
308
308
311
315
313
314
313
314
315
313
309
360
370
312
308
310
309
304
304
312
305
301
304
308
308
307
305
307
308
308
303
304
304
306
302
303
309
309
307
307
305
305
302
304
308
304
306
307
309
315
308
311
312
312
307
314
317
313
309
308
307
305
329
372
325
309
305
306
306
306
307
304
309
306
309
307
315
313
312
309
310
312
307
307
309
311
310
310
310
317
309
309
311
310
314
311
310
311
314
310
313
314
315
313
313
313
308
309
301
333
385
320
308
302
303
299
302
305
304
303
302
309
308
311
304
314
310
307
307
306
306
308
304
307
308
310
303
311
310
311
304
307
305
310
311
314
314
310
307
308
308
318
385
327
303
308
301
302
295
310
305
301
310
310
310
309
316
314
314
307
306
311
304
302
306
311
307
306
308
307
305
309
309
309
311
307
307
308
308
308
302
345
363
302
309
310
310
303
308
310
310
309
311
314
311
308
308
305
302
299
295
298
298
301
295
301
301
307
305
305
306
308
306
308
308
304
302
299
304
302
354
332
300
308
302
305
307
306
309
312
315
322
320
325
325
328
327
317
317
319
312
312
312
314
313
311
307
314
309
312
310
314
315
314
309
311
311
309
309
356
350
304
306
306
305
301
302
307
310
307
306
309
308
307
306
312
307
302
300
304
304
306
304
306
302
307
303
306
307
311
307
307
315
313
310
306
304
307
302
305
353
346
302
302
303
305
305
305
306
309
307
304
306
311
308
304
310
307
304
300
305
304
302
306
303
310
305
305
305
303
307
303
307
303
306
302
305
310
310
305
308
310
308
303
301
305
310
360
336
306
307
301
299
306
306
304
304
303
307
311
306
308
308
309
306
305
305
306
303
303
308
306
302
309
304
306
305
303
302
301
301
299
302
298
303
298
300
301
298
293
301
304
295
293
288
289
285
279
342
320
273
278
279
287
282
281
288
296
293
295
298
306
310
303
308
309
305
308
308
308
308
307
308
314
311
310
311
310
311
309
308
314
312
309
314
314
317
315
314
315
311
311
312
309
317
365
342
307
312
306
306
304
307
309
302
313
315
314
311
315
322
318
314
310
314
310
308
307
314
312
311
310
314
315
310
314
311
318
315
311
310
315
312
314
312
312
307
304
306
307
315
365
323
305
304
298
309
308
308
306
302
311
310
317
313
316
314
313
306
308
306
300
297
308
304
300
295
293
295
290
288
288
290
287
284
284
283
291
288
288
287
288
284
285
287
287
316
346
296
292
284
288
297
292
290
290
295
294
299
293
298
307
302
297
297
288
300
291
289
291
287
287
296
293
289
286
289
293
292
297
297
300
303
301
290
306
298
298
296
299
366
331
299
297
314
302
293
301
298
297
299
296
305
309
305
304
303
297
292
299
293
296
286
292
291
285
286
283
286
282
288
289
292
292
292
292
293
293
278
287
287
281
292
351
304
284
272
274
273
272
272
270
278
281
281
278
278
281
282
275
276
273
272
275
283
285
283
282
279
274
273
269
258
262
252
242
236
234
232
227
222
230
227
223
234
299
253
228
225
238
239
240
244
251
258
260
266
275
276
293
291
296
303
304
307
309
318
321
325
330
332
336
335
337
343
344
346
352
362
369
373
364
363
360
355
339
352
394
337
327
327
322
323
328
335
341
342
339
341
343
347
348
357
357
357
356
360
364
365
359
355
356
354
350
347
348
344
336
333
332
334
332
328
326
325
319
317
367
341
305
310
311
315
320
325
330
335
339
345
353
352
352
354
356
354
350
348
348
348
345
343
345
343
340
329
321
317
317
320
320
322
322
321
318
321
322
321
343
384
341
339
340
341
333
326
322
323
328
330
329
332
334
327
318
314
309
302
297
295
293
292
289
288
288
289
288
286
288
289
286
283
286
284
280
279
280
278
275
307
325
281
273
262
264
268
270
269
271
273
275
264
250
241
235
231
230
220
231
238
244
239
236
237
230
232
225
235
243
234
231
215
250
245
249
241
266
270
265
272
321
315
291
292
285
285
303
300
304
304
316
314
321
321
316
297
342
312
311
310
302
302
307
308
310
310
313
313
310
311
314
318
318
321
322
316
306
296
293
284
288
343
304
293
297
300
309
315
319
323
328
331
336
334
334
337
337
330
324
319
312
307
307
308
307
304
304
303
303
302
301
304
308
309
311
312
312
313
313
311
329
373
317
314
313
314
313
317
318
319
316
318
320
318
317
319
319
319
315
317
318
316
314
314
315
316
313
310
308
305
303
305
310
311
307
305
305
304
300
329
338
300
302
297
295
294
292
293
298
300
298
299
299
299
297
296
292
290
286
285
287
290
289
289
290
297
296
291
290
292
293
294
293
293
290
290
288
291
321
317
287
296
296
297
298
302
303
305
304
309
311
314
311
311
313
313
309
309
311
308
305
309
312
312
310
310
308
310
308
307
308
305
301
299
294
291
299
326
295
290
288
288
288
292
292
291
298
301
304
305
307
308
308
307
307
308
310
309
310
312
311
312
314
316
316
314
315
319
320
320
323
324
324
320
318
319
316
328
351
313
310
308
306
307
307
305
304
306
307
307
305
304
306
303
299
298
297
294
293
294
295
293
292
295
297
296
294
292
288
287
288
288
294
292
290
288
292
292
290
323
327
292
289
287
288
289
288
286
288
290
292
292
298
302
300
297
295
293
292
289
291
296
298
297
298
301
302
301
303
305
307
305
307
310
312
312
309
308
309
309
304
329
355
300
290
286
284
280
280
285
289
291
293
298
301
303
304
307
304
302
301
304
306
306
305
305
307
308
307
306
309
309
307
306
309
311
312
312
311
309
309
309
307
327
371
321
310
306
302
300
302
300
295
293
295
298
299
297
297
294
291
285
287
290
290
288
290
292
293
293
292
293
290
286
285
289
290
289
291
291
290
290
292
293
293
330
345
299
298
295
295
295
297
297
298
301
304
306
307
308
310
309
330
333
332
325
323
322
322
324
321
318
321
320
320
322
324
324
324
327
324
322
316
319
318
320
363
346
316
320
315
314
316
315
317
317
319
321
323
320
322
324
323
321
321
322
322
320
322
323
324
322
322
324
326
322
321
322
323
321
321
321
321
320
319
320
326
370
333
323
324
325
325
328
333
332
335
339
339
338
335
333
331
327
322
317
317
314
310
308
309
304
305
304
307
307
307
307
312
313
314
316
320
323
322
324
324
329
369
353
325
328
325
326
327
329
329
327
329
331
332
331
332
332
330
327
324
322
320
317
316
316
311
305
303
304
307
304
305
304
303
303
303
308
310
304
297
295
291
286
289
333
309
287
286
289
288
285
284
286
291
295
294
295
294
296
295
295
297
297
296
298
302
303
299
298
301
304
305
307
314
319
320
322
326
329
330
330
333
334
338
335
337
338
337
336
336
345
387
349
338
338
336
333
335
337
338
336
337
340
342
340
338
336
336
332
330
329
325
323
321
324
326
327
327
329
330
331
327
330
332
331
330
330
329
326
327
329
331
332
332
334
334
332
331
331
339
382
349
330
332
330
330
329
332
331
330
331
333
334
332
329
326
325
321
319
320
321
319
316
317
320
318
316
317
319
315
312
311
310
308
302
302
299
296
294
293
295
293
290
284
278
272
271
270
268
291
323
276
272
272
270
268
272
278
282
286
293
299
301
305
309
312
312
311
312
310
311
313
314
320
320
322
325
327
328
328
330
333
336
336
336
338
339
338
340
345
344
342
339
340
340
335
368
388
340
332
325
324
325
326
323
325
326
325
327
330
332
332
329
329
328
326
322
322
322
321
320
319
324
323
322
323
327
322
321
320
323
324
324
325
328
326
323
322
325
321
330
381
344
326
326
322
325
327
328
329
333
336
338
337
339
341
339
336
335
334
333
331
331
331
331
331
331
335
335
334
334
335
334
335
335
338
339
339
337
338
338
332
337
383
344
332
330
330
332
333
332
336
337
337
334
336
339
338
336
336
335
332
326
327
327
327
328
327
327
327
327
325
324
322
318
320
322
325
322
319
321
321
320
320
354
353
316
313
313
314
315
313
316
319
320
319
321
327
327
324
324
323
323
321
322
323
324
322
321
322
314
308
306
310
309
313
314
320
322
324
320
320
317
312
307
319
365
331
314
316
318
320
319
320
323
322
322
326
328
328
326
329
328
326
324
324
324
324
318
318
316
316
317
317
321
322
323
321
323
323
322
324
326
330
330
328
325
323
320
318
323
364
354
321
322
320
319
317
319
320
322
322
326
329
329
328
330
331
328
325
324
327
325
323
323
325
326
325
327
328
327
324
321
322
323
321
320
325
326
327
325
328
329
326
322
324
324
322
337
370
328
316
309
307
304
304
303
305
310
312
314
316
318
318
316
313
313
310
310
312
314
315
314
314
318
321
320
317
319
321
319
315
314
312
311
312
317
318
319
318
319
321
320
314
314
315
315
314
358
362
322
322
321
324
324
322
323
322
320
313
313
315
317
317
319
320
320
318
317
322
326
325
323
325
327
324
321
320
322
322
323
326
329
328
327
328
329
329
327
329
330
328
324
325
326
325
336
385
342
328
323
322
325
326
324
325
327
329
329
330
331
331
327
322
322
322
321
320
320
316
313
311
312
316
314
308
303
297
287
280
278
278
277
279
280
282
287
288
289
292
294
297
299
302
348
346
308
313
309
306
307
310
314
316
319
324
329
328
326
329
327
324
319
321
324
323
323
326
328
331
331
332
332
332
331
331
334
335
335
335
336
338
337
337
335
336
331
332
331
348
388
340
334
333
330
327
328
328
327
326
328
331
332
331
331
328
320
315
314
317
316
316
313
315
316
314
315
318
318
318
318
320
322
321
322
324
327
327
330
329
326
324
323
323
326
372
364
326
328
325
325
326
326
326
327
327
329
332
332
332
335
334
329
327
328
326
325
325
325
326
323
324
324
325
322
322
322
322
321
318
321
320
321
321
324
323
320
320
321
321
365
368
324
322
316
312
311
312
311
307
307
309
312
313
318
320
320
318
316
316
317
315
316
319
320
318
317
320
321
321
321
322
324
323
323
324
327
326
326
326
323
319
317
318
320
369
349
316
318
315
313
313
313
312
311
312
314
315
316
316
318
320
317
316
318
318
317
318
322
324
325
324
326
326
325
325
327
326
325
324
326
328
329
328
327
323
318
316
319
320
325
374
346
324
325
323
320
317
312
309
308
312
316
319
321
324
323
321
316
314
312
304
304
304
306
305
309
312
314
315
314
317
320
315
310
311
316
314
314
317
319
320
315
313
314
316
317
317
360
375
326
321
321
323
322
323
326
322
312
309
308
307
304
304
306
305
303
305
310
312
314
315
318
323
323
323
326
327
328
328
329
328
324
321
324
326
326
328
330
336
336
333
333
335
333
329
358
393
335
316
305
300
296
297
300
307
312
315
318
321
324
324
321
322
321
319
317
320
321
319
316
320
323
322
323
325
326
328
328
329
330
331
330
329
333
331
332
332
334
333
328
320
317
311
300
339
341
285
273
265
258
252
249
252
262
269
277
286
296
304
308
306
308
309
310
311
312
318
320
318
320
320
316
308
304
304
305
306
311
314
312
305
302
297
299
292
282
272
261
255
246
250
295
302
273
287
293
296
299
305
316
323
328
337
340
341
340
339
337
331
329
329
335
340
344
349
352
355
357
359
359
356
355
355
359
362
361
361
365
368
367
366
366
365
363
359
372
404
364
355
353
354
353
351
351
349
345
345
342
343
336
330
327
324
318
316
317
318
317
314
319
323
324
326
327
330
327
326
324
326
325
326
328
331
331
329
325
324
325
322
330
369
337
315
311
312
313
314
314
314
311
308
305
309
312
311
309
309
308
308
305
307
306
307
307
309
312
315
312
314
318
320
322
323
327
328
327
326
333
334
333
330
330
329
327
332
375
359
331
330
328
331
328
328
329
329
332
329
331
333
331
331
330
328
325
319
318
320
319
318
316
318
316
316
317
320
320
320
318
318
316
316
315
321
324
322
320
316
314
310
307
339
352
309
304
301
301
297
296
297
299
300
297
301
303
304
307
307
312
312
309
310
314
315
312
313
315
316
313
312
314
314
315
313
313
314
313
314
320
321
318
315
317
318
314
328
367
322
312
306
305
306
306
306
307
307
307
305
308
311
312
314
312
315
313
312
312
316
316
316
316
316
317
312
311
313
315
314
313
312
312
312
310
307
305
302
299
297
336
351
307
303
300
299
298
298
299
299
298
300
303
303
298
298
300
300
298
301
304
308
309
309
311
313
315
316
321
322
321
319
322
328
331
330
331
333
332
328
336
396
358
333
333
332
332
332
333
334
336
335
338
337
337
335
336
337
336
334
333
333
333
331
333
334
332
331
327
330
331
329
328
328
324
319
310
309
310
303
320
362
311
301
296
299
300
299
298
298
301
301
302
302
303
302
300
299
296
294
291
292
296
298
298
298
301
303
302
304
307
309
314
313
310
307
307
304
299
311
372
321
302
299
297
299
301
305
303
301
305
307
310
311
315
322
324
324
323
327
327
328
329
332
334
333
334
333
336
336
336
340
337
334
330
329
324
320
384
375
329
322
317
318
319
318
317
318
320
322
320
322
324
327
323
315
308
302
299
296
298
297
293
294
295
296
299
301
308
311
307
304
304
306
304
295
332
372
311
301
299
301
300
297
296
295
297
298
304
305
303
299
301
303
305
304
306
311
312
310
310
310
312
311
314
318
316
316
321
322
322
318
319
318
312
360
374
322
318
314
310
311
311
309
308
309
311
312
310
310
310
305
301
299
301
301
300
302
305
306
304
310
312
315
316
318
321
324
323
321
322
325
321
320
380
359
323
325
324
326
326
324
328
329
330
330
334
334
334
332
333
334
331
328
330
331
331
329
331
333
333
331
330
333
333
332
334
333
330
328
327
324
349
378
330
327
327
325
325
327
328
327
325
327
329
329
329
329
330
324
319
318
317
312
310
312
314
312
310
309
311
311
308
309
310
311
306
304
307
305
300
301
358
341
305
302
301
300
302
302
306
309
308
309
313
315
316
317
316
316
315
312
313
317
318
316
318
320
320
318
319
320
320
313
310
309
309
307
308
308
308
307
304
335
374
318
310
309
309
309
308
310
312
313
314
316
319
317
314
314
313
309
307
308
308
310
310
310
311
313
313
317
320
320
319
319
324
322
322
324
327
328
328
328
330
331
329
326
327
326
321
335
394
346
325
319
318
319
317
317
318
315
316
315
318
319
318
315
312
310
307
304
303
305
306
305
307
310
311
309
310
312
314
313
309
312
313
311
310
313
312
311
311
314
317
318
318
318
317
316
315
311
349
374
319
313
310
307
306
309
311
310
307
306
310
313
313
315
316
315
310
310
310
310
306
307
310
310
308
308
311
311
310
310
311
311
311
308
311
310
312
308
311
311
311
311
314
312
310
307
308
306
312
370
329
306
306
303
304
306
308
306
307
308
309
310
311
314
316
312
309
309
307
305
304
308
309
312
312
314
316
315
316
317
317
315
312
314
316
317
316
317
320
320
321
321
321
319
319
316
316
360
353
312
316
312
309
310
313
311
310
310
314
314
313
314
316
311
305
300
301
304
304
302
302
300
301
300
302
304
301
296
297
297
298
297
300
302
302
301
303
306
309
308
306
309
307
306
306
353
366
312
310
309
309
308
308
310
311
309
309
314
313
315
312
310
306
303
300
304
304
305
303
304
306
306
303
305
306
306
305
305
308
308
305
307
310
310
310
312
312
310
309
306
307
361
353
309
308
303
298
294
299
299
298
299
303
307
308
307
305
300
293
289
290
290
288
285
284
287
289
290
294
298
299
299
300
304
307
307
309
314
317
318
317
317
316
316
306
316
372
327
305
301
301
299
297
301
303
302
304
308
311
313
314
315
314
311
307
309
310
309
306
309
310
310
309
311
313
314
313
312
316
316
316
318
318
316
315
314
314
320
382
349
319
317
311
306
309
308
305
303
305
302
299
294
295
296
294
291
292
293
294
293
295
298
297
293
295
296
291
285
280
280
278
273
268
260
256
248
245
262
320
273
262
267
270
273
279
286
290
293
296
305
311
315
316
318
320
319
319
320
323
324
322
324
325
323
323
325
325
326
328
331
332
329
326
328
327
331
380
353
333
337
335
335
338
339
341
341
346
348
347
349
351
351
349
344
342
343
342
341
340
342
342
338
338
338
338
337
340
340
337
333
329
329
325
326
374
354
325
322
316
314
313
310
310
312
312
310
311
316
316
315
315
313
312
312
310
311
311
307
304
303
301
300
298
297
296
291
289
284
286
281
281
280
286
342
319
289
292
290
288
290
296
298
298
300
304
306
308
308
310
308
304
304
302
300
297
293
293
289
286
284
287
290
290
291
294
298
299
297
299
301
303
300
330
366
315
307
305
306
307
304
305
308
307
306
305
309
310
311
309
311
308
305
304
307
310
311
310
313
314
315
313
315
315
314
314
316
316
315
311
312
314
308
316
372
332
306
301
300
301
302
301
303
306
306
307
309
309
308
307
307
306
305
304
302
304
304
302
302
302
303
304
304
307
310
307
308
311
314
314
308
308
310
309
306
358
356
310
306
303
304
305
304
306
309
311
309
310
314
314
310
311
309
303
291
287
287
287
287
285
289
292
291
292
293
295
297
297
301
304
304
301
302
303
300
305
364
333
305
305
302
307
305
304
307
310
309
307
307
312
312
313
313
312
309
303
295
289
276
261
247
241
239
240
238
242
249
256
260
261
259
256
255
260
264
296
318
284
293
294
294
300
305
310
312
316
323
323
323
325
328
327
324
322
326
325
325
325
328
327
328
326
329
328
326
326
328
330
331
327
327
326
325
320
332
375
331
321
318
319
318
315
315
314
313
310
312
313
314
311
312
313
311
307
307
308
305
298
296
298
299
299
298
298
301
301
302
307
308
307
300
302
302
302
339
355
310
307
305
307
310
308
305
304
304
306
307
309
311
314
312
311
311
309
308
306
305
301
302
303
305
307
307
304
305
304
302
300
300
301
297
300
301
304
363
347
309
311
308
306
307
310
309
309
309
312
314
314
314
316
314
311
309
310
309
307
306
309
310
310
307
308
307
303
301
301
302
305
306
307
306
304
302
305
304
358
353
309
307
302
300
300
303
304
306
308
309
308
307
308
310
310
303
304
304
304
303
301
303
303
301
301
304
305
304
301
302
302
300
302
306
307
305
299
296
297
293
295
358
340
301
299
298
301
299
297
299
301
301
299
300
304
305
301
298
298
293
289
288
288
289
285
285
288
290
290
290
294
295
296
295
298
300
303
302
304
303
302
301
301
305
362
326
302
304
303
301
304
306
306
304
306
308
310
311
312
312
311
308
305
307
307
305
306
308
309
308
310
310
312
309
307
310
308
308
307
310
310
309
304
306
307
303
309
366
330
305
299
297
295
294
295
299
298
297
293
296
298
300
298
297
298
296
293
293
295
295
293
293
297
299
298
298
301
303
301
301
302
304
305
305
312
314
312
307
308
307
303
317
375
328
311
304
303
304
305
303
304
307
305
304
303
306
307
306
304
305
301
299
299
302
300
298
298
300
301
300
300
302
301
301
300
301
300
302
303
306
307
305
302
302
301
294
307
365
318
301
294
293
293
288
281
280
286
289
292
295
301
298
293
289
288
288
285
285
284
285
283
285
288
291
291
292
295
298
298
298
302
302
302
301
304
306
309
310
314
312
310
308
309
310
312
373
350
313
311
307
308
310
309
307
309
311
312
312
312
315
314
312
309
308
308
305
305
306
305
304
304
306
308
305
304
305
306
304
301
302
303
300
302
306
306
305
299
300
300
297
321
349
300
297
292
293
295
295
295
297
297
297
299
301
303
304
303
302
302
300
298
300
302
303
302
300
304
306
305
304
306
306
304
305
307
307
310
309
310
308
307
305
303
306
355
341
305
309
305
303
302
303
304
302
303
307
308
308
307
308
305
300
296
296
298
297
294
296
297
296
295
297
297
298
295
297
299
297
296
297
299
298
296
294
296
295
292
337
347
298
294
292
293
293
293
296
297
297
298
299
300
299
292
288
284
280
275
272
271
268
266
264
267
272
274
269
267
269
271
272
277
279
278
274
274
277
277
277
279
298
354
306
292
292
291
292
295
298
300
300
302
305
308
308
307
310
308
304
302
306
308
309
310
313
312
312
310
312
314
312
312
313
314
313
312
316
319
316
312
309
310
307
312
375
341
310
304
302
304
304
303
303
304
302
300
300
304
306
304
302
302
302
299
297
298
299
300
299
300
301
301
302
302
305
305
303
305
306
306
306
309
311
310
306
306
307
303
320
371
322
307
299
297
296
296
297
297
299
299
295
295
296
295
295
292
291
288
286
285
289
289
288
288
287
284
285
285
287
288
286
285
282
285
286
289
290
289
285
283
282
284
335
327
287
292
293
290
292
296
299
299
301
304
308
309
309
312
310
307
302
304
306
303
302
303
304
304
303
304
307
306
304
307
309
309
308
310
311
309
304
304
306
302
319
364
318
307
305
302
306
305
304
306
308
307
307
308
311
309
306
300
299
299
294
290
290
289
289
288
290
292
292
291
293
294
295
293
295
298
300
300
301
300
299
297
298
298
326
362
309
302
299
297
298
300
302
299
301
302
304
303
303
305
306
301
295
292
290
288
288
291
291
292
289
293
295
295
294
295
299
297
298
299
304
305
301
300
300
300
294
302
367
335
300
292
288
289
284
286
286
287
286
286
290
292
292
292
292
288
284
284
285
285
286
287
289
292
291
288
289
290
291
291
291
291
289
289
293
299
299
298
297
301
302
296
317
371
317
304
302
301
302
298
295
296
299
299
300
305
306
305
304
304
303
301
300
302
303
303
300
303
304
304
302
302
304
301
296
293
294
291
290
293
299
300
296
295
297
293
295
355
339
297
296
293
298
300
299
295
296
297
298
298
301
298
293
284
280
277
275
272
278
280
284
283
288
292
293
293
294
296
296
294
297
299
302
298
296
297
295
294
293
306
358
311
298
300
298
293
290
289
289
289
291
294
298
299
301
304
304
302
299
299
300
300
297
301
304
305
304
305
307
308
304
304
306
307
306
309
309
307
304
306
308
307
352
341
305
304
302
300
303
303
303
301
303
305
305
304
304
303
300
293
292
291
289
287
288
292
295
294
296
298
296
296
294
297
297
296
297
304
307
305
304
305
305
304
301
343
363
308
303
302
301
299
297
299
301
299
297
299
300
297
295
294
292
288
288
289
291
291
288
289
290
290
288
288
288
285
282
283
286
286
289
293
295
292
289
291
291
293
352
338
298
295
290
289
292
293
290
289
293
295
296
292
290
288
280
274
272
271
271
271
276
278
280
280
282
288
290
290
293
296
298
296
296
300
303
297
295
295
297
294
291
338
361
306
299
298
298
296
297
299
301
299
299
303
306
305
303
304
302
298
297
298
299
297
296
297
298
299
297
298
298
298
295
295
298
300
301
299
297
294
291
289
287
304
343
292
286
283
280
280
283
286
285
286
287
291
290
289
291
290
289
287
288
287
288
286
288
290
292
289
291
293
295
293
293
296
296
296
298
301
298
298
298
301
301
338
330
302
305
302
302
305
306
307
306
310
313
313
313
314
317
316
312
311
311
309
307
309
309
309
305
308
307
308
306
306
307
308
306
310
311
306
305
303
305
303
320
342
306
301
296
294
295
296
297
296
300
301
299
299
300
304
301
297
297
294
293
290
292
291
291
286
285
285
285
284
286
289
289
286
287
291
293
291
292
293
293
292
294
326
331
297
295
295
294
292
292
294
297
295
295
296
298
299
297
298
298
295
292
294
295
295
295
296
297
297
297
297
299
296
295
295
296
296
297
296
299
299
296
293
293
292
288
308
332
294
291
288
291
290
288
286
293
295
296
295
297
300
298
295
294
293
292
291
294
295
295
293
293
295
295
293
293
294
293
290
290
289
285
281
279
280
282
284
283
283
284
283
281
309
324
288
288
289
290
287
280
281
283
287
285
289
290
290
286
288
287
283
277
278
282
288
288
292
295
296
295
296
297
299
296
298
301
300
302
302
304
305
305
304
303
302
299
298
299
320
346
303
301
301
298
298
300
301
301
300
302
303
305
302
304
307
304
301
302
303
300
300
302
302
303
302
301
302
301
299
299
301
300
299
300
301
305
302
300
300
299
297
311
348
350
312
302
299
300
298
295
296
294
293
304
305
308
304
304
305
299
295
291
291
292
294
292
294
296
296
294
294
312
314
315
315
319
320
319
315
315
313
312
311
309
334
362
319
317
315
314
311
310
312
310
309
309
311
311
308
313
312
309
302
301
304
305
304
308
308
308
307
310
311
312
310
311
314
313
315
315
317
313
312
312
312
336
375
326
319
317
317
316
319
320
320
318
322
321
320
319
320
324
322
317
316
318
316
314
315
318
318
317
317
318
317
314
314
316
316
313
311
313
314
313
308
341
367
316
308
308
307
307
308
313
317
317
314
316
320
322
322
327
328
325
321
322
324
324
322
324
326
326
325
324
326
327
326
329
328
324
322
321
322
322
365
341
319
320
317
317
320
319
317
320
324
325
324
322
324
327
325
323
324
324
325
323
325
327
327
324
325
328
324
323
322
324
321
317
314
315
313
310
351
341
312
313
312
313
314
312
312
313
311
310
310
312
312
310
313
314
313
312
310
314
317
319
321
322
325
324
324
327
328
329
327
326
324
325
323
322
359
367
324
324
323
323
320
319
324
322
322
324
326
325
320
319
323
321
318
316
317
319
318
316
320
320
318
318
318
318
319
318
321
322
318
314
314
316
312
319
368
337
318
313
312
314
314
311
312
313
311
305
304
306
305
304
302
302
302
302
299
303
303
301
302
303
305
305
305
306
307
303
303
306
310
312
312
311
309
309
307
306
324
363
317
310
310
309
306
309
313
314
315
316
321
323
322
325
327
328
327
324
326
326
327
326
330
330
328
325
327
327
327
325
329
329
330
327
331
334
333
331
330
329
330
327
330
382
365
328
327
328
328
326
325
325
326
325
327
330
332
331
329
330
328
325
323
326
326
327
327
329
328
327
324
328
329
328
327
327
329
326
323
325
327
329
326
324
323
323
321
318
348
383
329
318
317
314
311
313
315
317
316
317
322
323
321
320
322
318
315
312
314
313
311
308
311
311
310
308
310
311
309
308
308
311
309
309
312
315
315
315
319
319
318
317
320
320
319
370
349
318
320
318
317
320
321
320
322
325
328
329
328
330
330
326
322
322
322
320
317
316
319
318
316
318
320
318
316
320
320
319
319
321
325
326
325
325
325
324
324
322
338
375
330
324
324
320
315
314
314
313
313
312
315
317
314
315
316
315
311
309
313
312
311
308
309
312
310
309
309
311
310
309
310
312
313
312
314
318
320
319
319
319
319
317
316
342
374
325
320
320
317
314
314
317
317
313
313
316
316
314
312
314
313
308
306
308
308
309
310
314
316
316
314
317
319
318
318
318
321
322
321
324
327
328
327
326
327
326
325
322
332
385
343
321
320
318
319
317
323
323
322
320
324
325
325
324
326
325
322
317
320
318
320
319
320
321
320
318
320
322
320
319
319
322
318
316
318
320
319
318
319
320
320
316
316
316
315
371
354
316
313
309
308
308
305
302
301
304
310
311
311
314
316
313
309
311
314
311
310
313
315
315
313
314
315
315
314
315
318
317
315
315
317
319
318
320
323
321
315
313
317
313
324
382
340
319
314
312
313
312
310
309
311
313
316
316
318
318
318
314
314
312
311
310
313
315
312
310
312
314
314
314
315
314
311
308
308
311
313
315
316
316
313
312
312
313
312
364
364
317
315
313
311
311
311
311
311
317
318
321
318
321
320
319
315
315
315
315
315
315
317
316
313
315
317
316
317
316
318
317
315
314
317
320
320
317
319
317
316
312
320
387
350
319
317
317
315
313
316
316
315
315
319
322
322
319
320
320
317
315
313
315
315
311
314
314
314
309
310
312
311
309
312
314
316
315
315
316
313
311
310
309
334
372
318
313
311
309
306
310
311
312
313
315
318
319
317
320
322
320
317
316
318
317
316
318
320
320
315
317
317
318
315
317
317
318
320
322
323
321
317
315
318
314
344
364
320
316
311
308
309
307
304
301
305
308
308
309
308
307
305
301
300
302
301
300
302
305
304
301
305
306
304
303
301
303
303
301
304
308
310
307
305
307
307
303
309
371
338
308
305
306
307
305
304
306
307
309
309
313
316
315
313
312
311
308
305
307
309
306
306
308
309
309
307
309
313
312
309
310
314
315
315
315
317
317
310
307
306
304
302
357
347
307
301
300
304
304
302
301
303
307
308
310
313
312
310
307
307
310
308
308
309
310
310
308
309
311
310
310
311
312
313
311
311
313
313
312
312
315
313
312
306
309
311
305
325
369
316
306
300
299
299
300
298
298
298
297
296
299
305
304
304
304
303
300
298
302
304
306
304
304
306
308
309
310
314
312
310
311
313
315
317
318
321
320
318
316
319
315
328
382
338
320
315
309
309
310
308
306
308
309
311
311
315
317
317
314
313
314
310
311
309
315
314
311
309
312
309
305
304
306
305
304
303
304
302
300
299
301
299
298
295
298
297
299
360
347
305
298
296
299
302
301
300
303
305
305
305
306
311
310
307
307
308
308
304
308
308
306
303
304
307
307
304
305
305
306
304
303
308
307
306
306
308
309
304
303
306
305
308
375
348
311
307
304
306
306
306
303
306
309
309
309
312
313
314
312
312
309
309
307
308
311
310
309
310
311
310
307
308
310
310
308
307
309
311
310
310
310
308
307
307
308
308
370
355
311
307
304
300
303
304
299
296
299
302
304
300
302
302
300
297
297
295
296
296
297
300
299
296
298
300
300
301
303
304
303
300
299
303
306
301
300
299
297
293
294
357
326
289
288
288
289
289
288
290
292
292
294
298
302
304
304
308
308
305
304
306
309
308
307
307
313
314
314
314
315
316
315
316
321
322
318
318
318
318
315
313
365
357
315
311
312
313
311
308
311
312
313
313
316
318
317
314
314
313
311
308
310
313
312
309
311
313
310
308
309
311
311
309
311
314
317
313
308
307
308
304
301
353
348
300
294
292
291
289
289
290
289
287
288
290
293
291
292
296
297
295
294
295
299
298
298
301
305
303
302
303
306
307
304
304
306
309
307
307
307
308
305
303
317
376
332
309
306
304
302
300
324
328
328
313
313
313
313
312
312
312
307
304
307
308
307
305
306
308
309
306
306
309
306
302
302
304
307
308
312
312
311
308
309
309
311
371
345
315
311
308
308
311
311
310
312
314
317
316
313
315
314
311
307
306
306
307
300
299
297
294
291
294
298
295
293
294
295
296
295
298
306
306
304
302
302
304
297
314
370
323
307
305
305
309
309
310
315
316
316
316
322
322
323
320
322
322
318
316
318
320
318
316
316
317
318
316
317
318
317
316
317
321
322
320
318
317
317
312
318
381
347
318
312
313
312
312
309
313
312
311
311
315
315
314
313
314
313
312
310
310
312
311
309
312
313
312
311
313
315
314
312
313
317
318
314
312
312
312
306
309
373
342
306
301
300
300
298
301
304
306
303
302
305
304
302
300
302
301
299
297
299
299
296
294
298
299
296
297
298
301
301
302
305
308
311
309
310
309
308
307
304
330
377
320
307
304
301
298
299
300
298
298
297
300
303
300
298
303
301
298
295
295
297
293
293
295
295
295
294
296
294
293
291
295
298
302
300
301
302
301
299
299
347
331
297
299
297
299
297
300
305
305
303
303
306
308
308
311
315
314
313
314
316
318
319
318
320
324
322
321
322
323
325
323
328
329
327
322
323
324
321
326
371
343
323
318
318
317
317
316
318
320
318
315
315
318
318
316
313
313
312
309
308
308
308
305
304
304
303
301
298
300
301
302
304
306
306
303
301
303
305
336
349
308
307
303
304
303
305
304
303
304
309
309
307
306
308
309
308
306
306
304
302
301
305
305
302
303
306
307
307
305
308
308
311
312
312
311
308
305
305
312
360
331
305
303
301
301
303
306
305
300
299
303
304
304
307
309
308
305
305
308
308
306
306
310
310
310
307
310
310
310
306
307
308
307
306
307
302
296
295
296
294
328
333
287
284
285
285
288
291
290
288
290
294
298
297
301
302
302
297
294
293
293
292
294
294
296
296
298
301
303
302
303
305
305
304
305
311
313
312
308
309
308
308
312
369
330
305
300
301
303
303
300
300
302
304
304
305
308
309
308
310
310
310
306
307
309
310
309
308
311
310
309
309
312
313
311
310
312
315
316
314
315
313
313
310
309
347
368
316
312
308
308
304
306
309
308
308
309
311
312
309
309
311
311
307
307
308
307
303
304
305
306
304
304
306
307
306
305
306
309
308
311
309
306
303
301
305
303
342
347
305
308
306
302
305
307
307
308
309
312
309
309
311
315
312
308
306
306
304
302
303
305
302
299
301
303
303
301
300
301
299
298
298
304
305
303
300
300
301
297
318
356
308
301
296
297
300
299
297
303
304
305
305
309
309
309
307
307
306
305
299
302
300
301
300
302
304
305
305
304
306
307
306
307
311
313
312
312
312
309
306
307
306
331
368
316
307
305
303
301
304
304
303
304
306
309
310
308
309
309
307
304
306
308
308
304
305
305
304
301
302
305
306
305
306
308
308
305
303
306
307
305
302
300
299
296
290
293
351
314
280
279
280
280
278
282
284
287
290
296
302
303
303
308
308
306
303
304
306
305
305
307
309
307
306
306
310
311
310
312
312
312
310
312
317
322
320
319
318
318
316
310
348
371
318
311
309
309
308
308
310
313
312
309
312
314
313
313
315
314
312
307
310
311
309
304
306
306
303
298
298
298
298
298
297
300
300
299
299
298
296
296
294
299
350
317
292
298
298
298
299
302
304
304
304
306
309
310
306
308
305
299
295
296
298
297
297
297
296
297
293
292
294
294
294
293
296
297
299
300
303
301
303
302
304
331
358
311
309
310
309
309
311
313
313
310
313
314
314
312
313
314
313
308
308
310
310
308
308
309
306
305
308
310
310
309
309
313
315
312
312
308
304
302
302
300
319
357
309
301
299
297
298
300
305
304
303
305
307
307
309
310
309
307
305
305
303
302
299
302
302
300
297
296
299
300
299
300
304
305
305
309
311
308
303
304
305
302
329
364
313
303
299
295
297
296
291
289
292
296
296
298
302
304
300
296
296
296
297
296
298
300
298
298
297
301
298
298
297
299
298
295
296
301
304
301
301
302
301
299
297
349
353
304
300
302
301
299
296
298
301
302
304
309
308
308
308
311
312
308
305
307
308
307
305
307
308
307
305
304
300
296
292
293
297
301
300
301
299
298
298
295
305
368
332
305
304
301
299
298
297
295
292
289
293
294
294
295
299
301
299
296
298
300
300
298
301
303
304
305
306
308
308
305
306
307
307
308
307
306
303
302
297
305
370
327
296
292
291
291
293
296
297
297
301
305
307
307
308
312
312
309
307
309
310
309
308
311
310
309
306
309
310
306
303
307
311
315
312
310
312
313
306
308
377
355
312
308
307
305
301
299
302
303
303
306
309
309
308
308
309
308
304
302
305
305
305
303
306
306
304
302
304
303
301
299
301
307
305
302
300
301
300
293
315
369
315
298
298
300
298
296
296
300
304
304
305
306
304
302
301
303
301
298
297
300
300
297
296
299
298
296
295
296
297
296
297
302
302
299
295
295
298
292
300
354
313
294
293
291
292
292
294
295
300
303
304
304
307
306
300
295
290
285
281
284
288
288
288
289
294
295
295
296
300
301
302
302
308
308
305
302
303
306
301
326
349
305
301
299
300
301
302
300
301
303
306
303
302
304
303
297
296
294
296
293
292
294
292
290
287
287
288
284
278
280
278
273
273
274
276
275
276
281
284
282
292
336
301
290
291
292
296
296
297
305
312
319
320
325
330
331
330
329
329
326
325
324
325
325
320
320
323
324
319
315
315
314
311
310
313
313
310
308
310
310
308
309
344
343
310
306
305
306
305
304
307
308
310
310
311
313
312
311
311
313
310
307
307
309
308
306
301
303
305
304
304
306
306
304
302
306
308
308
309
312
313
308
304
305
305
304
321
351
311
305
303
304
305
304
303
306
308
310
308
310
309
309
306
305
304
301
300
298
301
300
298
297
299
299
295
290
293
293
290
290
291
293
292
292
294
294
297
295
297
299
297
295
301
301
303
340
333
302
301
297
301
303
301
302
304
307
307
307
308
311
311
309
307
306
304
301
300
301
303
301
299
301
301
301
301
305
305
305
304
308
308
306
305
305
305
303
301
302
302
303
299
310
357
324
302
300
299
300
297
295
296
293
290
291
294
293
293
295
297
296
294
293
296
297
293
292
293
294
290
291
294
295
295
294
297
298
299
299
305
306
303
299
303
302
304
348
332
301
299
296
300
301
302
297
298
299
300
297
301
304
304
302
299
299
298
297
298
302
302
301
299
302
302
303
301
304
305
307
306
306
306
303
304
306
304
325
357
312
306
303
299
302
303
301
300
305
308
307
306
305
307
307
300
292
285
279
274
270
270
270
270
272
275
279
281
282
289
293
293
293
293
296
297
292
306
364
318
300
299
300
297
299
298
298
298
298
302
305
306
304
308
308
305
299
300
302
302
300
300
304
303
301
302
305
308
308
310
312
307
304
302
301
303
372
341
306
304
301
298
301
303
302
300
304
307
308
306
307
308
306
304
301
302
300
296
294
293
294
292
294
297
302
302
307
309
308
304
307
309
301
357
359
313
312
306
304
304
305
299
296
297
300
297
298
300
304
302
298
300
302
302
300
302
303
302
299
302
305
305
304
307
306
303
300
301
300
299
355
337
304
305
302
300
304
304
304
307
308
308
306
306
309
310
306
304
304
303
301
298
300
306
304
302
302
300
300
297
298
297
293
288
292
295
293
336
333
300
304
300
301
302
304
302
303
306
308
306
306
306
306
304
303
305
304
303
304
305
305
304
303
303
303
304
302
306
309
311
306
306
306
305
300
306
358
329
303
305
305
303
298
294
296
296
296
299
304
304
304
305
306
303
300
296
296
294
292
292
296
297
297
297
301
303
303
301
303
303
303
304
305
308
306
300
298
300
301
301
337
343
303
297
294
297
296
296
297
300
302
302
303
305
302
299
297
296
296
294
293
296
297
297
298
300
298
299
297
303
302
301
299
302
303
302
300
301
300
301
298
300
303
301
302
303
305
305
302
303
306
306
303
303
306
307
306
304
304
302
302
299
306
352
323
299
300
298
299
297
300
299
299
299
300
301
302
300
301
300
298
294
295
299
298
294
294
295
295
293
294
295
293
290
291
293
295
291
291
295
296
294
294
294
295
294
295
296
297
297
297
301
302
302
302
303
302
300
300
299
311
354
317
303
302
300
297
299
299
297
296
301
304
305
305
304
303
302
298
298
299
298
295
294
298
299
297
298
300
299
299
298
301
302
301
300
303
303
304
302
304
304
304
302
303
304
301
301
302
303
304
304
304
305
304
301
301
320
351
307
300
300
298
297
298
299
301
299
297
299
300
299
300
302
299
297
293
294
294
290
289
290
291
287
284
285
285
285
283
283
285
283
280
282
284
283
284
287
288
290
289
290
293
293
292
292
297
294
293
293
296
293
324
343
301
298
294
292
295
297
295
294
297
299
301
302
304
305
304
302
301
302
301
299
301
302
303
300
303
304
304
301
302
305
305
304
306
308
308
305
306
308
308
307
306
308
307
306
307
307
307
302
299
297
314
358
312
298
294
289
289
289
292
294
292
294
297
300
301
300
303
303
300
299
298
297
294
297
299
299
296
297
300
299
299
298
302
301
300
299
301
302
302
299
300
301
301
299
298
295
292
289
285
308
349
300
292
289
287
282
285
287
287
285
287
289
289
288
291
292
292
287
288
290
291
289
292
295
295
294
294
298
298
298
298
301
300
297
298
301
305
303
298
300
301
298
303
366
330
304
298
299
300
300
299
302
301
302
301
300
303
304
303
304
305
301
295
293
292
293
292
289
292
291
290
289
292
293
290
289
289
290
285
277
275
270
259
258
321
282
250
241
239
242
240
238
236
236
239
239
243
245
248
251
257
262
265
268
273
280
285
289
292
298
300
301
302
309
316
322
322
325
324
324
323
320
346
377
326
326
324
323
323
325
325
324
322
322
325
324
321
320
317
314
307
305
307
307
305
303
306
304
300
299
301
302
304
307
309
308
305
307
308
305
329
344
304
307
305
302
306
306
305
305
308
309
310
310
312
314
313
308
307
307
307
304
304
304
304
303
302
305
307
304
307
310
310
306
305
307
307
304
342
343
308
307
304
304
305
302
302
304
303
299
297
298
299
296
292
289
287
285
283
285
285
288
284
288
291
291
290
293
295
298
295
295
294
297
293
291
329
340
295
293
294
293
292
289
290
291
292
292
293
293
288
286
285
284
282
278
280
284
285
282
283
283
281
283
285
286
287
285
283
283
286
283
286
287
288
288
285
325
344
295
292
295
292
292
291
295
295
292
291
294
294
294
293
297
295
292
290
290
293
292
292
294
292
288
284
285
283
282
282
282
281
282
283
287
289
289
289
291
293
306
349
308
301
301
300
300
303
303
300
300
303
302
300
299
298
296
295
293
295
296
297
295
297
300
298
299
302
305
305
304
305
307
308
305
306
309
307
306
308
311
312
309
308
308
305
302
302
302
330
356
308
303
302
299
298
300
301
300
299
303
305
301
299
302
302
302
299
298
297
297
294
296
295
293
292
292
294
292
290
288
288
286
283
281
283
282
279
278
281
281
282
284
288
288
285
283
284
284
284
337
321
285
283
279
283
286
286
285
288
290
292
290
292
293
295
295
296
295
294
293
293
296
297
296
296
299
301
299
300
300
302
302
301
303
302
301
300
303
304
303
302
307
305
302
300
301
300
311
368
324
304
298
294
295
297
296
294
295
296
295
293
290
289
285
281
275
272
271
267
267
269
269
271
271
275
277
277
279
282
284
285
284
290
291
291
291
295
298
300
297
295
297
295
287
315
360
303
290
283
284
285
282
284
285
285
282
283
286
285
284
286
289
288
286
287
290
291
292
291
292
295
295
292
296
296
296
297
299
299
297
301
301
302
300
297
297
293
332
365
310
299
297
293
292
296
296
296
298
300
301
302
300
305
308
304
300
303
303
302
300
301
301
301
300
304
305
304
301
303
303
302
301
297
294
292
290
284
291
365
320
288
287
285
284
287
288
290
288
290
294
296
293
292
294
294
293
291
293
292
291
291
292
290
287
285
288
287
285
283
289
291
289
286
288
290
284
298
372
319
297
293
294
292
291
289
291
293
295
294
294
297
297
296
295
292
291
288
287
287
288
288
288
293
292
292
289
294
298
296
293
294
296
295
292
337
333
296
299
294
295
295
296
298
302
300
301
303
303
304
300
299
295
292
288
288
291
292
288
290
293
293
291
292
296
299
300
299
298
298
297
295
340
339
299
298
297
297
298
297
300
300
299
298
301
303
303
301
301
301
300
297
299
300
300
297
297
296
298
297
297
301
300
298
297
298
297
292
299
358
320
297
292
292
294
292
291
293
296
297
296
297
299
298
295
296
294
292
289
290
290
288
288
287
288
287
286
288
291
294
293
290
290
290
291
283
309
347
294
279
277
276
274
270
273
274
276
276
280
280
276
271
272
269
266
263
264
265
265
262
263
262
262
261
260
262
261
261
266
273
272
267
267
272
272
275
342
321
290
287
287
291
294
296
298
301
305
310
310
311
315
315
314
314
312
310
307
308
310
310
308
308
311
311
309
306
307
306
307
310
311
307
302
300
300
294
333
363
307
300
297
295
297
299
299
300
304
307
307
306
309
311
311
309
308
308
308
306
306
308
308
305
306
307
305
305
302
303
300
299
301
306
305
302
296
299
298
291
313
366
311
294
289
292
291
290
291
294
295
294
293
298
298
301
299
299
297
296
292
292
294
295
292
293
295
294
293
293
293
292
289
291
295
297
293
291
292
292
286
287
346
317
285
287
288
289
287
289
290
292
291
289
293
294
295
295
296
296
292
292
294
293
294
293
295
298
299
298
299
301
300
299
301
303
302
303
302
306
306
304
302
302
300
294
321
344
301
297
294
295
296
295
295
296
295
294
293
296
298
298
295
291
287
282
277
276
274
273
271
276
277
276
277
280
283
285
284
287
290
291
291
290
293
295
293
294
298
301
302
300
300
299
299
296
301
349
331
299
299
298
296
293
297
299
300
299
301
302
303
302
302
304
302
299
298
298
298
296
297
299
299
297
295
297
297
295
293
294
296
292
290
292
293
291
285
284
281
279
280
281
283
282
282
281
279
279
279
281
292
340
310
289
286
286
285
281
282
281
278
282
282
282
280
281
285
282
283
281
288
288
292
291
291
292
290
292
294
292
294
289
292
293
293
294
294
296
299
296
298
305
303
302
304
305
305
298
298
297
299
295
314
337
288
281
278
275
275
277
274
278
282
286
291
296
300
303
299
305
303
307
299
302
307
307
307
310
313
310
308
311
312
315
317
315
315
315
312
310
310
307
306
304
306
308
306
303
303
306
303
317
362
318
306
302
296
293
293
293
296
297
297
289
288
284
280
275
273
271
264
262
265
270
268
271
271
276
273
272
266
268
269
269
271
275
274
273
276
283
289
289
289
288
286
284
283
286
334
339
296
296
296
296
297
299
302
300
298
302
305
304
303
303
304
301
294
292
293
292
293
292
295
295
295
298
302
301
300
297
304
302
299
306
301
306
297
294
292
291
303
357
339
306
297
316
313
308
315
321
334
324
322
331
327
323
335
325
321
324
327
316
314
314
307
309
302
307
297
306
294
291
291
295
290
297
296
293
285
302
289
331
338
295
289
294
288
286
288
292
289
292
295
296
294
297
303
302
293
292
293
295
285
292
289
286
282
278
278
283
280
277
277
281
282
279
278
283
281
279
340
321
285
280
278
276
274
268
272
272
276
274
276
278
276
274
277
276
276
274
275
275
276
277
277
279
281
278
281
282
285
284
283
284
285
282
275
306
328
278
277
277
276
273
272
275
279
282
280
284
284
284
280
279
279
278
272
275
275
278
279
282
286
288
286
288
292
294
293
291
293
292
291
290
331
329
299
303
304
306
303
304
306
305
305
303
306
308
308
306
308
307
303
300
302
304
305
305
305
306
307
304
309
311
313
310
306
305
306
302
301
331
345
304
305
303
301
299
301
301
301
298
298
302
302
298
296
297
297
296
293
295
296
297
294
298
298
296
296
296
297
294
293
297
299
298
292
292
293
293
293
331
326
294
293
289
292
291
292
292
293
295
294
294
298
297
296
295
295
295
292
290
292
295
292
289
293
294
293
291
292
293
294
292
292
294
292
291
293
293
291
285
281
280
279
280
281
283
316
321
282
281
277
270
261
253
250
250
254
260
267
270
272
275
278
278
274
274
275
276
274
278
278
280
278
283
283
280
277
277
281
283
285
287
294
297
297
296
301
303
300
301
301
300
296
298
300
302
328
336
298
294
290
288
292
294
293
293
295
297
297
296
300
302
302
300
299
301
299
299
301
303
302
299
294
294
294
291
292
293
293
291
290
292
292
290
289
290
288
287
282
280
281
280
275
293
339
298
284
283
284
281
281
284
288
291
292
294
297
296
294
294
292
288
284
284
289
290
290
292
293
292
293
293
296
298
298
298
301
303
300
297
295
292
278
264
254
256
259
255
291
320
273
266
269
272
278
279
282
286
291
292
296
299
300
302
305
308
305
303
301
304
305
303
304
307
311
310
311
311
315
314
313
315
317
334
335
337
336
336
332
330
388
369
327
320
317
313
308
308
309
312
311
315
320
321
319
320
321
320
317
317
320
318
316
312
311
312
311
309
310
309
306
307
312
314
313
308
309
309
302
322
366
314
301
294
295
297
296
297
300
305
308
309
311
313
318
319
324
324
325
326
331
334
335
335
336
337
335
335
332
339
341
344
342
344
340
336
334
330
380
379
332
331
329
325
321
320
321
323
323
323
322
324
320
318
320
317
315
313
316
315
313
313
316
314
313
313
314
317
319
316
319
318
317
315
314
337
364
320
318
319
315
313
318
321
321
321
325
327
328
328
328
327
323
321
320
319
314
306
306
308
308
302
303
305
308
309
312
314
313
310
307
303
320
357
313
306
309
308
307
312
315
317
316
320
321
324
322
323
323
321
318
316
317
316
314
317
320
320
318
319
322
325
325
326
326
325
321
319
317
314
343
353
317
318
313
310
310
311
312
309
311
316
316
314
313
313
307
302
300
299
298
294
294
294
294
293
299
300
303
303
304
306
307
306
306
310
313
309
308
307
311
306
319
360
322
310
308
309
311
310
309
312
315
314
314
315
316
317
314
313
313
311
310
311
312
312
312
313
314
312
312
311
313
314
314
313
314
315
314
313
316
316
314
315
316
318
317
315
317
320
320
318
317
319
319
314
347
358
318
315
314
314
314
311
313
314
315
314
315
317
319
317
315
315
314
309
310
311
310
308
304
305
304
302
301
300
296
290
285
290
289
288
286
290
293
293
292
294
294
294
294
296
301
300
300
300
301
299
298
299
302
305
352
333
305
305
304
305
307
306
306
307
311
315
317
317
318
318
317
315
314
313
312
312
312
313
311
310
311
311
311
310
312
317
314
311
310
310
311
311
311
311
305
303
301
301
303
305
308
310
315
313
312
310
312
312
304
326
371
322
311
311
310
309
306
311
316
319
321
326
328
330
331
333
333
330
326
329
329
332
330
331
333
333
329
330
333
332
331
329
332
332
330
331
333
333
332
329
330
329
328
327
330
331
330
326
324
325
324
320
335
379
327
320
323
322
321
321
321
324
321
318
320
324
327
325
326
324
323
320
318
318
320
322
321
322
324
321
322
321
323
323
321
321
322
321
320
321
322
322
318
320
322
320
319
317
319
318
314
315
316
354
344
310
313
311
308
308
310
308
305
305
306
308
308
308
310
311
304
301
301
301
303
298
301
300
298
296
297
299
296
294
296
301
304
301
303
307
308
306
308
310
312
311
313
315
313
311
311
310
318
359
336
314
315
313
311
314
312
314
312
314
315
315
316
318
320
317
312
312
311
311
308
309
309
307
305
306
307
306
303
302
304
305
304
304
305
306
306
307
308
307
306
305
306
304
302
297
297
307
343
294
284
284
281
283
285
288
290
290
294
296
302
302
306
310
308
304
306
306
310
308
309
313
314
315
316
320
322
320
320
322
319
315
313
317
319
320
321
324
322
319
315
317
316
312
333
338
297
293
290
292
293
294
292
290
292
293
294
299
301
301
298
288
288
287
287
286
290
294
294
294
300
302
304
304
307
312
308
311
315
316
315
315
321
323
321
321
323
323
323
320
353
358
319
313
312
312
310
306
308
304
303
301
302
303
304
301
300
304
301
301
300
302
304
306
308
310
310
312
311
317
317
318
317
319
320
322
321
322
324
326
326
326
327
322
321
318
318
357
354
317
318
317
316
318
320
320
320
320
325
328
326
327
330
329
326
322
322
321
320
317
319
320
318
318
318
318
315
313
312
312
312
309
308
309
309
309
311
317
318
314
313
315
314
314
360
349
316
310
306
309
310
306
302
302
301
299
299
302
302
300
298
300
296
294
291
295
298
298
296
298
301
301
298
300
302
303
304
304
307
307
304
306
308
309
305
304
306
310
308
319
370
336
315
312
315
316
315
317
319
318
319
316
317
316
312
309
308
307
305
303
305
309
309
307
308
310
312
310
310
308
301
296
296
297
301
299
300
296
297
297
299
301
300
343
321
284
281
276
273
270
267
264
261
267
271
272
274
275
278
282
284
288
295
298
303
307
312
314
313
318
323
326
324
327
334
336
337
340
340
341
339
338
337
338
392
358
335
337
334
332
332
332
333
333
336
340
338
335
335
338
336
332
327
323
315
310
312
315
316
315
317
321
322
321
319
321
321
317
310
306
309
307
318
364
324
319
320
319
324
324
325
326
329
328
325
323
324
320
316
318
321
320
318
319
319
318
318
317
316
316
312
313
319
321
321
318
318
319
317
316
316
353
342
310
312
312
312
310
312
312
312
310
313
313
311
308
310
311
308
303
303
305
305
304
306
304
304
302
299
302
304
308
308
311
309
306
306
308
308
345
335
306
305
302
298
304
302
303
304
306
308
309
306
306
305
303
296
297
298
297
296
295
298
300
298
299
303
304
303
303
303
300
297
293
294
291
286
279
284
327
296
273
277
276
276
275
278
283
284
288
294
301
301
298
299
298
296
295
296
300
302
299
303
307
309
309
309
314
313
313
313
315
317
315
318
320
315
307
301
303
304
304
350
343
306
303
300
301
303
303
302
305
306
309
308
314
314
316
312
311
312
313
310
312
316
318
317
318
321
320
321
320
323
321
321
319
322
322
320
317
317
312
308
306
306
302
327
355
310
302
297
292
291
293
292
291
295
299
303
305
305
310
308
306
305
305
306
305
305
310
310
309
311
313
311
310
308
313
313
311
307
309
309
311
310
313
314
312
309
311
310
308
345
358
313
313
308
309
310
309
309
312
315
317
319
320
324
324
324
320
321
318
313
309
308
307
302
297
300
301
299
298
301
301
300
297
303
308
310
310
309
311
311
310
312
315
358
349
314
315
313
312
312
313
315
314
316
320
320
319
320
321
321
318
314
315
316
315
313
315
314
312
311
311
312
311
310
311
310
309
306
307
310
313
311
307
307
308
305
305
345
347
301
297
297
294
289
289
295
297
298
296
303
304
303
303
305
305
302
300
303
305
305
303
303
303
303
301
304
306
308
306
308
309
307
307
306
309
310
306
306
306
305
304
303
302
320
361
313
303
301
298
297
298
297
296
297
301
305
304
301
301
303
302
298
293
286
282
280
282
285
288
287
288
290
290
286
284
282
279
278
278
284
288
290
291
294
295
295
294
296
300
297
297
355
337
299
297
297
300
299
295
300
303
305
306
311
315
314
312
313
314
311
307
307
309
309
308
309
312
314
313
312
313
316
314
312
315
315
315
315
320
318
317
314
316
319
313
330
383
333
318
312
311
315
315
313
314
314
315
312
314
316
312
306
303
303
302
301
302
303
302
298
299
302
301
299
296
296
296
296
296
299
300
300
299
297
300
301
294
315
370
320
303
299
298
298
297
299
301
301
302
304
307
311
308
308
308
307
304
304
305
307
305
303
305
304
303
302
306
305
303
303
305
304
301
295
295
298
292
300
350
308
296
294
293
295
297
297
298
302
303
304
305
307
307
305
305
306
306
305
304
306
306
305
305
308
307
307
302
304
305
304
303
302
303
300
297
300
301
331
341
301
303
301
299
302
304
303
304
304
308
313
312
314
316
317
314
312
316
315
316
314
316
310
303
301
302
301
301
301
304
306
309
307
306
304
301
300
303
346
340
305
308
309
309
306
307
309
306
306
305
309
309
308
306
302
299
297
296
298
297
294
292
292
293
293
292
296
297
295
290
287
289
286
282
281
283
285
279
304
340
294
284
281
282
284
286
282
286
286
286
290
297
299
302
299
297
295
293
291
295
297
297
295
298
298
298
297
299
298
294
292
295
299
302
300
299
296
295
291
291
343
341
297
295
295
296
296
296
299
301
301
301
302
303
302
302
304
303
299
294
292
289
285
286
292
297
300
300
302
306
308
307
308
312
315
313
312
312
311
310
307
325
380
332
313
310
307
307
308
312
312
311
310
314
314
310
305
305
305
298
294
293
290
290
288
292
296
296
296
298
299
302
302
302
303
298
291
286
287
289
291
290
312
363
312
300
302
304
301
297
299
299
300
302
307
308
306
308
310
310
308
306
307
307
305
302
304
305
304
304
305
307
308
307
307
311
312
309
308
312
311
307
336
354
310
308
307
308
308
306
305
310
312
312
311
313
314
312
309
308
308
305
300
302
302
301
300
299
304
304
302
302
305
303
303
304
304
303
298
295
296
296
330
334
296
297
295
294
297
296
297
296
300
302
303
300
302
303
303
299
299
299
298
298
297
301
300
299
298
300
300
300
297
300
302
302
302
301
300
297
296
296
309
350
308
300
296
296
294
296
296
297
298
300
304
302
302
301
301
300
296
295
296
295
293
291
294
296
293
295
299
298
296
296
296
294
292
291
296
298
295
291
292
295
293
307
349
309
297
292
293
294
292
290
293
296
299
297
298
299
298
296
295
296
296
294
295
297
298
297
298
303
304
303
303
307
305
306
303
305
307
303
304
306
309
306
304
302
305
303
305
346
336
301
296
296
298
299
297
299
301
302
303
304
306
304
300
296
297
295
295
295
299
302
299
300
303
304
302
302
303
303
303
302
304
306
307
302
301
297
294
290
289
288
288
282
282
313
325
281
281
280
280
274
271
270
273
277
281
286
286
284
284
288
286
286
282
286
287
286
284
287
289
288
287
289
294
292
293
294
298
301
300
304
307
310
310
310
310
311
310
308
312
366
337
309
310
311
309
308
308
307
307
309
315
316
316
315
316
316
314
309
311
312
308
307
310
314
313
312
312
312
310
306
305
308
310
308
309
309
312
310
306
308
308
307
305
356
342
306
308
309
315
316
315
317
318
320
318
320
321
317
314
313
308
302
295
300
299
297
295
295
296
294
293
292
298
294
294
294
299
298
296
292
295
296
293
292
339
320
290
289
292
292
292
288
292
295
303
308
306
307
305
307
311
312
313
311
313
315
317
313
317
320
322
321
324
328
329
326
325
327
318
311
306
301
299
305
340
306
277
267
247
226
212
201
196
198
210
223
231
239
236
230
226
230
237
246
256
264
274
276
279
281
286
291
295
301
307
312
314
318
322
320
317
320
322
333
371
339
323
324
324
326
330
336
337
337
342
349
356
355
357
362
361
355
352
351
351
349
348
348
343
339
334
336
336
334
332
333
333
333
329
327
324
319
315
318
327
368
342
320
318
317
315
320
323
323
321
324
327
326
322
318
320
317
316
312
313
312
307
306
308
308
308
306
313
316
320
322
326
329
329
329
335
339
337
333
335
336
334
333
373
366
335
332
332
334
332
328
324
323
322
323
323
327
325
319
315
310
307
303
300
304
304
302
301
302
305
305
305
308
310
310
309
310
311
312
312
316
317
317
317
316
317
319
317
318
346
365
322
320
319
317
313
310
314
315
315
315
321
321
317
317
317
315
312
308
309
309
308
307
309
310
306
302
303
305
306
305
305
303
301
297
297
300
300
299
300
300
297
297
298
301
325
350
304
300
294
294
294
296
296
295
296
301
302
300
297
297
302
302
298
298
299
301
302
304
305
309
307
310
314
316
315
316
320
320
321
322
326
330
328
324
323
319
316
311
334
366
320
307
308
306
303
301
303
306
309
309
307
309
306
304
309
311
307
304
305
303
297
296
296
297
298
296
294
291
285
278
277
281
285
288
286
282
276
272
269
275
334
322
288
288
289
289
290
295
298
296
292
291
286
278
270
267
264
262
257
258
261
267
268
274
282
287
291
295
302
308
310
312
318
320
317
314
315
318
316
330
380
331
316
313
312
316
319
316
319
324
328
330
336
340
344
341
340
338
336
336
338
343
345
343
341
344
342
337
333
334
334
332
329
327
331
329
326
332
401
370
332
334
334
337
336
343
345
344
346
346
347
344
349
349
344
340
333
330
326
324
319
318
318
315
308
305
304
310
308
306
307
306
309
308
302
345
362
310
313
313
312
312
316
321
321
321
326
331
333
335
340
343
346
345
346
353
353
351
345
345
341
343
342
346
347
345
340
335
333
330
327
335
387
339
328
325
320
314
311
309
312
314
312
316
316
314
312
315
317
315
313
310
311
313
312
313
313
316
314
313
316
318
316
314
313
312
311
305
335
343
304
304
297
297
298
296
298
300
298
296
297
300
300
298
295
292
289
284
283
285
287
285
284
287
288
289
290
292
293
294
291
290
292
294
289
315
343
299
291
290
291
293
289
293
295
296
297
298
298
299
297
297
296
294
292
289
292
291
291
289
290
290
287
286
288
288
287
288
292
292
285
276
275
274
268
262
244
251
289
248
238
238
239
242
248
256
259
262
263
261
264
266
270
276
277
277
280
285
288
291
293
296
300
300
298
301
304
303
302
304
309
310
309
313
317
321
321
323
326
327
327
326
329
329
327
327
329
328
327
328
333
335
333
330
333
334
332
368
387
341
336
332
334
335
334
329
326
326
325
321
322
320
316
311
311
313
311
308
309
312
315
315
317
318
319
319
320
322
321
315
307
304
303
304
307
311
313
313
315
318
319
317
316
319
321
320
320
323
323
321
317
319
318
313
325
367
322
308
304
301
306
311
310
312
316
319
320
322
325
326
324
319
317
314
312
308
312
314
314
310
313
315
316
314
318
320
316
313
313
314
314
310
312
315
316
316
317
317
318
319
320
320
319
316
317
318
323
363
336
312
310
308
304
308
308
309
307
309
310
310
308
309
311
305
300
300
299
298
299
298
299
299
298
298
298
299
297
297
300
303
302
301
303
304
303
300
302
302
300
299
299
302
302
300
300
302
301
294
309
350
313
299
300
302
301
301
303
307
307
307
307
309
308
308
308
309
308
304
302
303
303
304
304
307
308
307
304
302
304
302
300
301
302
300
297
297
299
299
300
300
303
304
300
299
302
302
300
303
299
308
344
307
299
302
301
298
298
297
296
298
303
305
307
301
297
295
290
288
293
294
296
295
296
300
302
302
305
307
309
306
305
308
308
307
305
307
307
306
305
310
311
311
311
310
310
308
305
304
308
345
328
302
304
302
297
297
299
299
298
302
303
304
300
302
305
308
308
307
310
310
308
308
308
312
310
309
312
314
312
312
314
315
314
313
315
317
317
317
318
317
314
311
312
312
323
358
313
296
293
289
290
288
283
276
277
282
289
292
295
301
303
303
302
303
306
304
303
306
311
309
307
309
308
305
302
304
301
299
297
296
297
297
295
293
294
295
292
313
340
298
295
294
294
291
286
286
292
298
299
302
309
311
309
308
309
308
306
306
306
305
305
305
306
306
306
304
303
304
307
307
310
314
309
304
302
303
302
301
347
344
309
305
303
307
307
307
305
308
307
305
303
308
310
310
310
310
310
308
304
303
307
306
305
306
308
307
304
306
309
310
310
310
311
309
308
308
307
327
364
320
309
306
304
301
302
302
303
303
304
308
306
305
307
310
309
304
303
304
303
302
303
306
304
304
303
305
306
304
307
312
310
307
303
305
305
300
344
351
309
303
300
302
303
301
299
303
306
306
304
307
306
302
300
298
297
294
289
288
288
287
285
286
287
288
285
286
290
292
291
290
291
292
288
289
341
320
288
288
291
291
290
289
293
296
294
294
296
296
298
297
300
302
302
301
304
306
306
304
305
305
305
304
306
312
316
315
312
313
313
313
311
341
354
316
316
317
316
316
313
315
313
311
304
306
308
309
309
311
312
309
306
306
307
306
303
302
305
305
303
303
303
307
305
304
304
305
304
302
338
342
303
303
303
303
302
298
298
298
299
299
302
302
300
299
299
300
299
296
297
299
298
297
296
297
300
297
297
301
301
299
298
298
296
297
293
303
351
323
300
299
298
296
292
294
296
294
294
294
297
298
298
301
301
300
297
299
301
301
298
299
300
303
301
300
302
302
299
300
305
305
301
298
300
298
298
342
336
305
302
298
300
301
297
296
294
295
292
289
292
295
297
292
292
291
291
290
292
295
296
298
297
299
301
299
299
301
303
302
301
302
301
297
297
301
300
321
352
309
303
300
300
300
303
304
301
303
305
304
302
299
298
297
290
283
279
280
278
280
286
287
288
284
283
281
278
276
280
280
281
280
279
277
276
277
279
282
335
316
288
290
289
289
293
295
297
299
301
306
308
306
310
314
316
312
309
313
315
313
313
317
317
316
314
316
314
313
313
314
316
317
310
309
309
308
300
322
361
312
302
300
299
298
295
294
295
291
287
286
288
287
288
290
292
293
292
292
296
300
301
301
304
307
304
301
304
305
305
305
306
305
304
305
305
311
352
325
303
302
297
295
296
298
303
302
304
309
310
311
311
314
315
311
309
310
312
311
309
314
312
311
306
307
307
306
303
306
309
304
300
298
300
297
311
354
314
303
297
294
295
295
294
295
298
298
295
290
291
292
291
288
290
291
291
292
296
300
300
298
300
301
302
301
304
305
305
302
300
298
292
288
286
282
304
335
293
291
290
286
289
293
292
289
289
292
293
292
293
294
293
288
283
281
280
280
275
272
273
272
269
272
275
275
273
273
277
280
283
288
289
285
286
287
287
293
350
323
299
298
296
298
301
298
292
289
294
296
298
297
300
302
304
303
304
306
306
304
306
307
307
308
311
314
315
315
315
314
311
310
311
315
315
314
314
314
311
355
366
319
317
315
311
313
313
313
313
316
318
317
317
316
315
312
309
310
311
307
304
307
310
310
309
309
309
304
304
305
306
306
306
308
313
310
303
298
296
291
292
352
328
298
296
292
294
299
297
294
296
300
301
298
300
302
303
299
297
296
295
294
294
296
297
293
293
294
294
292
291
294
296
297
298
301
300
295
294
297
294
302
351
313
296
294
294
294
295
296
295
297
299
298
296
298
299
300
295
292
291
290
290
290
294
293
292
292
297
299
299
300
302
302
302
301
304
307
306
301
302
304
300
308
365
326
304
300
299
299
299
298
297
301
303
303
304
305
301
299
297
297
297
295
294
298
298
297
296
299
299
300
300
302
303
302
300
302
304
305
304
303
303
303
300
292
315
343
274
249
234
226
218
217
223
229
234
240
241
241
241
247
253
255
258
260
266
268
268
272
279
284
287
283
284
283
280
278
278
288
293
296
301
304
305
308
311
313
339
379
332
332
332
330
332
335
337
337
340
344
346
345
340
341
341
341
340
339
336
331
327
329
330
333
331
331
331
330
328
331
334
336
334
332
330
328
329
330
332
341
386
346
335
338
335
334
338
338
336
334
337
342
341
338
341
340
336
332
331
332
330
326
326
327
324
322
321
323
320
317
316
317
315
314
311
310
307
304
304
307
339
345
307
308
308
306
303
305
306
306
305
309
312
312
312
313
313
311
307
307
307
309
307
308
312
311
311
312
313
312
306
306
308
309
306
302
300
299
298
297
302
345
329
297
296
292
294
292
295
296
296
296
299
301
303
302
305
306
306
304
305
307
308
307
308
310
311
310
310
313
315
313
314
317
318
319
316
315
313
313
311
311
341
358
314
311
312
310
310
313
316
317
314
315
317
317
315
318
320
319
312
309
314
314
312
310
310
313
312
312
314
313
313
309
312
313
314
312
311
309
309
307
306
329
360
313
308
306
306
304
304
305
302
301
302
304
304
302
304
306
306
303
302
305
305
306
305
307
305
302
299
301
301
302
300
304
307
306
301
299
300
299
297
305
355
324
303
305
307
309
307
308
308
307
306
307
314
314
313
316
316
317
315
311
313
313
312
308
313
310
311
307
311
312
313
312
316
320
318
315
313
313
311
322
364
325
312
306
305
307
310
311
309
311
311
304
300
299
300
301
300
301
300
295
295
295
299
299
296
296
299
298
299
302
306
309
308
309
309
309
308
304
312
360
328
304
306
305
304
303
306
306
303
299
300
298
296
295
301
304
302
301
304
306
305
303
305
307
307
305
308
311
311
311
314
317
315
311
310
310
302
323
368
325
313
308
304
306
309
311
313
315
311
312
310
313
315
313
308
305
300
299
296
301
305
304
301
298
297
297
295
299
301
299
295
295
298
302
296
330
360
310
297
292
293
296
298
300
304
306
310
310
313
315
312
307
307
305
303
302
304
310
311
308
310
309
307
305
305
309
312
307
306
310
312
307
315
376
331
307
300
297
298
298
299
303
305
307
307
310
310
308
307
307
307
305
302
305
307
309
308
309
312
310
308
310
314
314
312
310
311
311
305
326
361
314
307
306
308
309
306
306
308
306
304
300
300
304
303
302
303
303
303
300
301
301
302
300
300
301
301
301
306
311
311
307
304
306
303
298
334
355
313
308
305
308
310
309
309
315
314
311
310
312
313
314
311
312
312
310
309
308
310
310
306
308
308
306
305
303
306
309
306
302
302
303
299
306
366
333
305
299
298
298
299
299
303
301
293
280
276
273
270
266
265
266
263
261
264
268
268
269
273
276
279
280
281
284
287
289
289
293
292
286
283
282
276
285
339
300
287
287
285
291
297
298
299
305
307
310
310
312
314
315
309
307
306
305
305
306
306
306
304
306
309
312
311
312
314
313
314
312
317
322
321
318
320
318
317
309
344
380
323
310
309
309
304
299
299
302
305
304
307
307
303
299
297
297
296
292
290
293
294
294
293
296
300
299
298
301
300
297
294
299
303
302
303
309
310
305
297
295
296
291
289
356
327
290
289
291
296
299
299
302
307
312
310
312
314
316
317
319
319
316
310
306
307
309
311
312
313
314
314
312
315
318
316
312
311
312
314
313
317
323
323
317
313
309
307
302
322
386
330
310
308
309
310
310
311
317
318
319
319
322
319
313
302
297
292
286
280
279
281
281
279
279
280
282
281
282
284
285
285
284
286
286
286
284
288
290
289
286
287
288
283
282
347
318
278
278
278
280
280
281
285
290
292
292
295
299
300
299
299
301
300
298
299
302
302
303
307
310
308
305
307
309
307
306
305
308
313
315
316
321
321
317
318
322
321
339
380
329
320
317
313
317
321
322
322
325
329
332
328
328
330
322
313
308
308
308
306
309
314
315
315
315
317
317
316
316
315
316
314
315
317
320
316
309
307
305
304
299
310
361
320
301
298
296
296
294
295
293
290
288
290
295
297
296
291
290
289
290
289
294
293
291
289
288
290
291
292
296
299
299
299
303
304
304
298
298
300
299
298
298
302
301
299
318
357
310
295
291
291
290
292
294
296
298
300
302
307
311
310
307
307
305
305
302
305
306
307
305
308
308
308
308
307
306
304
301
302
307
305
298
292
292
292
294
294
295
294
291
289
286
312
339
289
284
282
281
281
285
287
288
289
292
295
296
291
294
297
296
292
290
286
287
288
289
294
296
293
292
294
296
296
299
302
303
304
303
305
307
307
308
310
309
300
287
282
283
282
288
350
325
294
291
293
298
300
301
304
308
309
312
314
317
318
316
312
312
312
310
308
311
310
306
299
300
302
303
304
305
306
303
303
304
306
306
305
307
310
311
311
310
311
308
304
302
297
323
361
308
301
296
294
293
295
300
299
299
303
305
306
305
306
308
305
301
300
301
301
298
300
299
300
298
301
304
305
303
302
302
304
300
301
306
306
306
306
307
304
301
300
303
300
327
351
305
305
301
301
304
306
305
304
306
308
307
304
304
305
304
301
300
299
297
295
296
298
299
297
297
302
301
300
298
300
301
299
297
300
301
305
302
303
302
300
299
299
308
361
321
300
295
289
284
287
287
284
280
279
283
284
285
286
287
284
279
280
283
286
286
286
288
289
288
285
287
286
283
279
279
277
274
271
275
279
280
278
283
287
286
318
347
300
295
292
294
297
301
300
302
305
311
313
316
320
321
320
315
313
312
309
310
314
316
315
312
313
312
311
306
306
307
307
306
308
305
300
295
294
292
310
360
316
304
299
295
292
291
292
293
295
301
306
305
302
297
290
276
262
257
250
250
250
253
261
265
268
267
264
262
263
262
265
265
261
262
268
273
271
287
347
297
274
268
270
273
277
279
287
290
295
298
305
308
307
301
300
298
296
298
302
307
309
310
313
316
316
311
309
308
311
312
311
311
311
312
311
313
366
347
305
302
301
300
298
299
301
302
305
310
312
312
308
308
304
301
296
294
298
299
299
301
304
305
304
305
308
308
309
312
311
311
306
304
306
302
347
353
309
305
301
301
302
304
304
304
306
308
309
306
309
309
309
304
306
305
307
304
304
303
304
302
302
303
303
303
304
308
307
305
303
306
305
309
357
327
313
311
308
309
309
309
308
312
315
313
312
312
314
313
312
309
311
310
307
309
310
313
312
312
316
316
314
315
318
316
315
311
311
312
308
317
360
322
308
306
304
305
304
303
305
306
306
304
307
309
307
304
304
304
302
298
299
301
300
296
297
298
298
296
295
297
298
296
292
293
294
293
289
299
343
311
292
291
293
293
290
294
296
295
293
294
298
296
291
292
294
292
291
290
291
288
282
281
287
287
288
287
291
292
293
292
297
298
295
291
293
294
294
317
339
300
295
291
291
293
295
293
295
297
298
297
299
301
302
299
298
298
298
296
296
298
298
295
295
296
298
296
295
297
299
298
297
298
300
299
296
294
294
294
290
298
339
304
287
284
285
281
275
271
270
272
271
274
279
275
271
268
270
271
267
266
269
271
270
270
276
279
282
282
284
287
289
289
291
293
297
296
298
303
302
299
299
303
301
308
356
323
304
303
301
303
304
305
304
306
310
312
309
311
312
310
305
303
298
296
290
291
291
293
292
290
292
290
288
285
286
284
280
279
283
286
284
285
285
286
289
288
288
324
347
300
296
296
296
296
300
300
300
299
303
306
307
305
308
310
308
305
305
305
302
300
301
302
301
299
300
303
305
302
302
306
308
308
310
311
309
307
304
305
304
344
355
311
308
307
304
304
308
306
304
305
309
305
301
300
303
303
302
302
304
304
302
299
300
300
298
296
295
296
296
295
298
302
302
297
293
291
289
288
290
328
324
286
291
291
290
289
294
300
303
303
303
302
299
293
292
295
295
295
295
300
302
304
304
305
301
295
289
292
294
297
299
304
307
307
302
302
303
301
312
342
304
302
302
301
304
305
304
305
308
307
305
303
304
304
304
302
305
304
301
301
302
304
304
302
304
305
304
303
307
309
308
307
305
303
301
298
295
304
341
302
293
294
294
293
293
296
293
289
289
292
294
293
290
293
292
290
289
291
292
291
291
292
293
292
289
289
292
293
290
294
297
299
297
295
296
297
294
294
324
327
291
288
288
288
287
289
292
293
294
295
299
299
298
297
298
298
297
294
297
297
298
296
296
296
296
294
294
296
296
294
295
