÷495
497
500
500
500
500
503
505
506
506
506
509
511
511
511
511
513
514
514
514
516
517
516
514
514
516
517
515
514
514
517
521
528
540
559
577
588
589
578
558
536
524
519
521
523
522
520
518
518
518
518
515
516
518
519
519
519
521
524
524
523
523
526
527
527
526
527
529
530
528
528
531
532
532
533
537
537
536
537
539
538
536
537
538
536
533
532
530
527
524
524
521
518
515
516
513
509
509
510
509
506
506
507
505
504
505
505
503
501
505
507
506
505
507
506
505
505
508
507
505
506
509
509
507
508
509
508
506
508
509
508
508
510
509
507
507
509
508
507
508
510
509
507
508
509
507
507
508
509
508
506
507
508
506
505
508
509
507
507
509
508
506
507
507
506
504
505
506
504
503
505
504
502
500
502
502
499
498
501
500
498
499
500
499
498
500
503
502
501
504
506
506
505
507
507
505
504
504
504
503
504
506
505
504
507
517
531
551
573
584
572
543
519
509
508
507
508
506
503
502
504
502
501
502
504
503
501
504
505
504
503
505
506
505
504
508
509
508
508
511
512
511
512
515
515
515
517
519
518
516
517
516
513
509
509
507
504
502
502
498
495
494
496
495
493
494
496
495
494
494
495
494
493
495
495
493
493
495
495
494
495
498
498
497
498
500
499
497
499
500
499
497
498
498
497
497
499
499
498
497
500
499
498
498
500
499
497
497
499
499
497
500
501
500
499
502
502
501
499
501
500
498
498
500
499
497
498
500
499
497
499
500
498
497
499
498
495
494
497
496
494
493
496
495
493
493
495
494
492
493
494
494
492
493
494
492
490
492
492
490
489
492
493
492
491
492
491
489
489
488
485
483
484
485
483
480
482
485
493
508
531
550
553
537
510
487
478
479
480
477
473
473
474
471
469
470
471
469
469
472
473
471
472
474
474
474
476
479
478
477
478
480
480
480
483
486
485
484
486
487
487
486
488
488
485
483
483
481
477
474
473
471
467
467
467
466
464
466
466
464
463
465
465
463
462
464
462
461
461
463
463
461
462
464
462
461
464
465
465
464
467
467
465
465
467
467
465
465
467
466
464
466
467
466
464
465
466
465
464
467
468
467
465
466
466
464
465
467
466
465
466
468
468
467
469
470
468
467
470
471
470
470
472
473
471
470
473
473
471
473
476
475
474
475
476
474
473
475
475
474
474
477
480
480
479
481
481
479
479
481
480
478
479
479
479
478
481
487
497
513
536
551
550
533
509
493
488
490
494
492
491
492
493
492
492
495
497
499
499
502
503
503
503
507
509
510
511
515
517
517
519
523
524
525
528
532
532
533
536
538
537
537
540
540
538
537
539
538
535
535
536
534
532
532
534
533
532
534
535
534
533
536
537
536
535
538
537
536
536
539
540
539
539
541
541
540
542
545
545
544
546
547
546
546
548
548
547
547
549
550
549
551
553
553
552
553
556
555
554
555
557
557
555
557
557
556
556
557
557
555
554
556
555
552
552
554
554
552
553
555
555
553
556
557
556
554
556
556
555
555
556
555
554
554
556
555
554
555
557
556
555
557
558
557
556
557
556
554
553
554
552
549
548
550
549
546
548
553
562
576
599
616
617
597
570
551
545
546
548
546
543
541
543
542
540
541
544
544
541
543
545
544
542
543
544
543
543
544
544
542
541
543
543
542
542
544
544
544
544
546
545
543
544
543
539
535
535
532
529
525
524
522
518
517
519
517
515
515
515
513
510
511
511
509
508
509
509
507
505
508
508
506
505
507
505
504
504
506
504
502
502
503
503
501
503
503
502
501
503
503
502
502
505
504
503
502
504
502
501
502
504
504
501
501
502
499
498
499
501
500
499
501
501
498
497
499
499
497
497
500
499
498
499
501
500
497
499
499
497
495
497
497
495
495
497
496
495
496
497
497
495
495
497
496
496
496
497
495
493
495
496
495
496
499
499
498
498
501
500
497
496
498
497
494
494
495
494
493
496
496
497
503
520
541
560
568
558
531
504
494
494
493
490
489
489
488
486
486
487
486
485
487
486
484
484
486
487
485
485
486
486
485
486
488
487
486
487
488
487
485
487
488
486
485
487
484
481
479
479
476
471
469
467
464
460
458
457
454
450
449
449
446
444
444
443
440
438
439
437
434
432
433
433
430
430
430
428
427
427
427
424
422
422
423
422
420
421
420
418
418
419
419
417
417
418
416
415
415
416
415
413
415
415
413
411
413
412
410
410
413
412
411
411
413
411
408
409
410
409
409
409
409
407
406
408
409
407
406
408
408
406
406
409
409
408
409
411
410
409
412
414
414
414
416
418
417
417
419
420
419
419
422
422
421
422
424
424
424
425
427
427
428
431
432
431
430
432
432
429
429
431
431
430
431
432
432
434
445
463
485
502
508
493
462
440
435
436
435
432
433
432
429
428
430
430
429
432
436
437
438
439
443
444
447
453
458
460
461
465
468
469
474
481
485
489
494
500
502
503
505
508
509
510
514
516
518
519
524
526
526
524
526
525
523
523
527
529
529
532
536
539
543
550
556
560
563
572
579
585
593
609
630
656
694
761
864
917
928
931
932
932
934
933
933
932
933
933
933
932
933
934
933
933
933
935
933
932
933
935
934
933
933
935
934
933
933
935
934
933
934
935
934
934
934
935
934
934
934
934
935
934
934
935
935
934
931
909
888
865
839
814
791
767
743
719
698
676
652
624
557
468
392
335
290
246
208
175
147
120
95
79
62
44
30
23
17
13
10
7
5
3
2
1
0
0
0
0
0
0
0
0
0
0
0
0
0
0
0
0
0
0
0
0
0
0
0
0
0
0
0
0
0
0
0
0
0
0
0
0
0
0
0
0
0
0
0
0
0
0
0
0
0
0
0
0
0
0
0
0
5
13
19
24
27
28
31
36
39
41
42
46
51
54
56
57
61
65
68
70
74
80
85
88
90
95
101
105
108
110
116
123
127
129
132
138
143
146
148
152
158
162
165
167
172
178
182
185
189
194
198
202
205
210
215
218
220
222
228
233
236
237
240
246
250
252
254
258
264
267
269
272
277
281
284
287
292
297
301
304
306
310
315
319
320
322
327
332
335
336
340
346
350
352
353
357
362
364
367
373
377
381
384
390
393
394
396
402
406
408
411
416
419
421
426
429
431
432
436
439
441
443
448
451
452
455
462
465
465
469
473
475
474
476
478
479
480
483
486
486
488
495
507
524
547
570
577
562
535
518
513
514
518
520
520
519
521
523
523
523
525
528
529
530
535
537
537
538
544
545
546
548
551
553
554
556
559
559
559
563
567
568
569
573
574
573
574
576
576
574
573
574
572
569
569
569
567
564
565
566
564
562
563
564
564
564
567
568
567
567
570
571
570
571
573
573
573
576
578
578
577
581
583
583
583
587
588
587
588
591
592
591
591
593
594
593
595
597
598
597
597
599
598
596
597
597
595
595
598
598
596
596
599
597
595
594
595
594
594
595
596
593
591
593
593
590
587
590
590
587
586
587
586
585
586
588
587
584
585
586
584
582
583
583
581
580
582
583
581
580
581
580
579
579
580
580
578
580
582
581
579
582
584
582
580
581
581
578
575
576
575
572
570
572
571
569
572
582
596
616
637
647
633
602
578
571
569
567
566
564
559
557
558
557
556
557
560
559
558
559
561
559
559
561
563
562
561
563
563
561
560
563
563
562
563
565
564
561
561
562
560
557
557
557
554
548
548
545
541
536
535
534
530
528
528
525
521
519
519
516
513
511
512
511
509
509
508
506
505
507
507
505
504
506
505
503
502
504
502
499
498
499
498
495
495
495
494
493
495
495
493
492
494
494
492
490
491
491
488
488
490
489
489
489
490
489
489
491
492
490
488
489
489
487
487
490
489
485
485
488
487
484
484
486
486
484
486
487
486
486
488
488
487
488
492
493
492
493
495
494
492
493
496
496
495
496
498
498
497
500
500
498
497
499
499
497
495
496
495
492
492
494
494
499
512
532
551
560
556
532
504
489
488
490
487
484
485
485
482
482
483
482
480
481
484
484
482
484
484
483
483
485
486
485
485
487
488
485
486
489
488
488
489
493
493
492
492
493
491
489
490
489
485
482
481
479
475
473
474
471
468
467
468
466
464
464
465
464
462
462
462
460
458
461
463
462
461
464
463
461
461
464
464
462
463
466
467
465
467
469
468
467
469
471
470
469
472
472
471
470
473
473
471
471
474
474
473
475
476
476
475
478
480
479
478
480
481
480
481
486
486
485
487
490
490
489
490
492
492
492
494
496
495
494
496
497
497
498
502
502
502
504
507
507
506
508
512
511
509
511
513
513
512
515
516
516
520
534
551
569
580
579
560
534
521
521
523
522
523
524
523
522
523
524
523
523
527
530
529
530
533
534
534
535
538
539
539
541
545
545
544
546
549
549
549
553
554
554
554
556
557
556
556
558
556
553
551
550
548
545
544
544
541
537
539
539
538
536
539
540
538
537
539
539
537
538
540
540
540
541
543
543
541
544
545
545
544
547
548
548
547
551
553
551
551
553
553
553
554
556
555
553
555
557
556
554
555
555
552
551
554
554
552
552
553
553
551
551
552
551
550
551
551
550
548
549
550
548
547
550
551
549
548
549
549
548
547
548
548
547
548
550
550
549
549
550
548
547
548
548
548
547
550
549
548
548
551
549
547
548
550
549
544
544
545
543
540
541
541
541
546
560
578
599
613
614
593
563
547
545
544
542
540
540
538
536
537
538
537
537
539
540
539
539
540
540
538
538
542
542
540
541
542
540
538
540
542
540
540
542
543
542
540
542
542
540
538
539
537
533
531
531
527
523
521
520
518
515
516
516
513
510
511
511
509
509
511
511
508
509
511
511
510
512
514
514
513
514
515
514
513
514
515
513
513
515
514
511
510
512
511
509
509
511
511
511
513
514
512
510
512
512
509
508
511
512
510
510
512
511
509
509
511
510
509
510
512
510
508
508
509
507
506
508
508
507
507
510
511
509
509
510
510
508
509
511
509
507
508
510
510
509
511
512
510
509
512
512
510
510
513
514
513
513
514
515
513
514
515
514
511
511
510
507
504
505
504
502
500
502
504
509
524
547
569
578
569
542
513
499
499
498
494
489
489
489
485
483
485
485
484
484
486
486
484
483
484
484
483
484
485
483
481
482
484
481
480
482
483
483
483
485
486
485
485
486
484
481
480
481
479
474
473
471
468
464
465
463
460
458
460
459
456
455
457
456
454
455
458
457
455
456
458
457
457
459
460
458
458
461
461
459
459
461
461
461
462
464
465
464
465
466
466
465
466
468
466
464
466
466
464
464
467
467
465
466
467
466
465
466
468
467
466
467
468
466
464
466
466
464
464
465
464
462
462
464
463
461
461
464
465
464
465
466
464
463
464
465
463
462
464
464
462
462
465
465
464
465
467
466
465
466
469
468
466
466
467
465
462
463
462
461
461
463
463
460
463
472
485
502
522
532
524
498
476
465
462
462
463
462
459
458
461
463
461
460
463
464
463
464
467
467
466
468
471
471
472
475
477
477
477
480
482
481
483
488
489
489
490
493
493
492
493
495
493
491
491
492
490
487
487
487
485
485
486
486
484
484
487
487
485
487
490
490
491
493
495
496
496
500
502
501
500
504
507
506
507
510
511
511
512
515
515
514
517
520
521
520
522
525
524
525
528
528
528
528
531
531
530
531
533
533
532
533
536
537
535
537
540
540
539
541
541
540
539
541
541
541
541
544
546
545
546
548
548
546
547
548
547
546
549
550
549
549
552
553
552
552
555
556
555
556
559
560
558
557
558
556
553
553
555
553
552
553
552
551
553
563
577
595
613
624
613
585
561
553
552
550
550
550
547
545
547
548
547
545
547
548
548
548
550
550
549
550
551
552
552
554
557
556
555
558
560
559
559
562
563
563
563
564
564
563
563
564
562
559
558
558
555
553
553
552
550
546
546
546
544
542
543
543
540
540
542
541
539
539
541
540
538
539
541
540
540
542
544
542
542
544
545
543
541
543
544
542
543
546
545
544
544
545
544
544
546
546
544
542
543
543
541
540
542
541
539
539
541
540
538
539
541
540
538
539
540
540
539
541
541
539
537
538
538
538
537
539
538
535
535
537
535
533
533
534
533
532
533
534
531
530
533
533
531
530
533
532
530
530
532
531
530
531
532
531
530
531
531
528
525
526
527
525
525
526
525
524
530
545
564
585
600
599
576
545
530
528
527
524
522
520
518
516
518
517
516
515
518
517
516
516
518
518
517
518
521
521
520
522
524
523
522
525
526
525
525
528
530
528
528
530
529
526
526
527
524
520
519
518
514
511
510
510
507
503
502
501
499
497
498
497
494
494
496
495
493
494
496
496
496
498
500
499
499
502
503
502
501
503
504
503
504
507
507
505
506
509
509
509
511
512
511
510
512
513
510
509
510
510
509
508
510
508
506
506
506
505
503
504
505
503
501
502
503
502
501
503
503
502
500
502
502
500
500
502
502
502
502
503
503
501
503
505
504
502
503
503
502
501
504
503
501
502
505
505
504
505
507
508
506
507
509
508
507
508
508
506
505
507
507
506
505
506
506
503
505
511
523
540
564
581
578
556
529
513
508
508
509
507
503
503
505
505
505
506
509
510
509
511
512
511
510
510
512
512
512
514
516
515
515
517
518
516
516
519
519
517
517
519
518
516
516
518
516
512
514
512
508
505
505
504
501
499
500
499
497
495
497
497
494
494
496
493
491
492
494
492
492
494
494
493
492
494
494
491
491
493
492
491
491
492
492
490
491
493
491
488
490
491
488
487
488
488
486
486
489
488
486
485
486
485
483
483
484
483
481
483
484
483
482
483
483
483
482
484
483
481
481
482
481
480
481
483
482
481
481
482
482
481
482
482
480
479
481
482
481
481
484
485
484
485
488
487
485
485
486
486
485
487
488
487
487
491
498
510
527
547
557
549
528
508
497
495
498
501
500
498
499
501
500
499
502
505
505
505
509
510
510
511
514
516
516
518
521
522
521
524
527
528
527
530
532
532
533
536
538
537
537
540
540
538
537
537
535
532
530
530
529
526
528
529
529
528
531
532
531
530
532
532
531
532
535
535
534
536
538
538
537
538
540
539
538
541
542
541
542
544
545
543
543
546
546
545
545
547
546
544
545
547
547
546
548
549
548
547
550
551
551
551
552
552
551
551
553
553
551
553
554
553
551
553
553
552
551
554
553
551
550
552
551
550
551
552
552
549
549
550
550
548
549
550
550
548
551
551
549
549
553
553
552
551
552
551
548
547
547
547
545
544
545
544
544
550
562
577
597
613
612
591
562
547
543
542
541
540
537
533
533
535
533
531
533
535
533
532
534
535
533
532
534
534
532
533
535
535
533
534
537
537
535
536
537
536
535
536
538
535
533
534
532
528
526
526
523
519
517
517
514
510
508
509
507
505
505
505
504
502
504
504
503
501
503
503
501
501
503
503
502
504
506
505
504
505
506
505
504
506
506
505
504
506
507
505
506
508
508
506
507
509
508
506
507
509
508
506
508
509
506
504
506
506
504
503
505
506
503
502
503
502
501
501
502
500
499
500
501
500
499
500
499
497
496
497
497
496
495
498
497
495
495
496
496
494
495
498
497
496
497
498
497
496
498
499
497
497
499
499
497
495
497
495
491
490
491
489
487
488
489
488
491
503
519
539
556
564
549
521
499
495
494
491
489
488
485
483
484
486
485
484
486
487
486
484
486
487
485
485
489
491
492
493
496
496
494
496
498
498
498
501
502
501
501
503
503
502
500
501
499
497
494
493
490
487
486
487
484
481
481
481
481
479
479
480
478
476
479
480
479
478
480
479
478
479
482
481
480
481
482
481
479
482
484
482
482
485
485
484
484
487
486
484
484
488
487
486
486
488
487
485
486
487
487
487
489
488
487
486
488
488
487
486
487
486
485
486
488
487
486
486
487
485
483
484
485
483
483
485
485
484
483
485
485
484
485
487
486
484
484
486
485
483
485
485
485
484
486
487
486
486
489
489
488
488
490
490
488
488
488
486
484
486
487
485
483
485
487
493
505
525
544
552
544
522
497
483
483
486
484
481
481
482
480
479
481
481
481
481
484
485
484
485
488
487
486
486
490
490
489
490
493
493
492
496
498
498
497
499
501
499
499
502
501
499
498
498
496
492
490
490
488
484
483
483
481
479
479
479
476
474
476
476
475
475
476
476
475
475
478
477
475
476
477
476
474
477
479
478
477
480
481
481
481
483
484
483
483
486
486
486
487
490
489
489
490
492
491
491
494
495
495
494
496
497
496
496
498
498
497
498
501
501
499
500
501
500
499
502
504
504
503
505
505
505
505
506
507
506
506
510
511
510
512
514
513
514
516
518
519
519
521
522
521
520
523
523
520
520
524
525
523
523
524
525
529
540
559
578
590
592
574
546
529
527
529
529
528
530
529
527
528
531
531
531
532
535
535
535
537
541
541
541
545
547
547
547
550
551
550
552
555
556
555
556
559
560
560
562
564
563
561
562
563
560
558
558
555
553
551
551
550
547
547
548
546
544
545
547
546
545
547
549
548
548
550
551
550
549
551
552
550
550
551
550
549
549
552
552
551
552
553
552
550
553
554
552
550
552
551
550
550
552
551
551
551
553
553
551
553
554
553
551
553
553
551
550
551
552
550
549
552
551
549
548
550
550
548
548
550
549
547
548
549
548
546
549
549
547
545
548
549
547
547
549
550
549
549
551
550
549
550
553
552
550
552
551
548
546
547
546
544
542
544
544
542
542
544
550
561
581
604
615
609
588
562
546
542
545
543
539
536
537
538
536
536
538
537
536
537
538
538
535
536
538
537
537
539
540
538
538
540
541
541
541
543
543
541
543
546
545
544
544
544
541
538
538
537
533
530
529
527
523
521
522
520
518
518
519
517
513
513
515
513
510
512
512
510
509
511
512
510
510
513
513
510
509
510
509
507
507
509
509
508
509
509
509
508
510
511
510
509
511
511
509
508
510
511
510
510
512
511
509
510
511
510
508
510
511
510
509
511
511
510
509
512
511
509
508
510
509
507
507
509
508
506
506
508
507
506
506
507
506
504
506
505
504
503
505
503
502
503
505
504
501
502
503
503
502
504
504
502
500
501
500
496
494
496
495
492
492
495
497
504
520
544
563
567
554
526
502
493
495
493
488
484
484
483
480
479
482
482
481
481
483
483
481
482
483
483
482
484
486
485
485
487
488
486
486
489
490
490
490
491
491
489
489
490
487
484
485
484
481
478
478
476
472
470
471
470
466
465
466
465
463
463
464
462
460
462
462
461
460
461
462
461
460
463
463
461
461
463
462
460
461
463
462
461
463
465
465
464
465
467
466
465
468
468
466
466
468
468
467
468
470
469
467
468
469
468
466
469
471
470
468
469
470
469
469
471
470
469
469
471
470
469
471
473
471
469
470
472
471
468
470
471
470
470
472
474
473
473
477
479
479
479
480
480
478
479
480
479
478
480
482
481
481
485
492
503
521
543
554
547
526
504
491
487
492
495
494
491
493
495
494
495
498
499
499
500
504
505
504
505
508
510
510
513
516
516
516
519
522
523
523
526
529
529
529
533
534
533
533
536
535
534
533
534
532
531
531
532
530
528
528
529
528
527
529
529
529
529
531
531
530
529
532
532
531
532
534
533
533
536
539
539
539
541
542
541
539
541
542
541
540
542
542
540
540
542
541
540
542
544
543
542
543
544
544
544
547
547
545
544
547
547
546
546
547
547
546
545
546
545
543
544
546
544
543
544
545
544
543
545
544
543
542
545
544
543
543
544
543
542
544
547
547
545
548
549
548
548
550
549
546
545
545
543
541
540
541
540
538
539
543
550
562
584
605
612
599
574
551
540
539
540
538
534
532
532
531
529
528
531
531
531
532
533
532
531
532
534
533
533
536
537
536
535
537
537
536
537
539
539
539
540
542
542
541
542
542
540
538
539
538
534
532
531
530
527
524
524
523
520
520
520
519
516
517
518
516
514
515
517
515
515
517
518
516
515
518
517
516
516
518
517
515
516
518
518
517
517
518
516
514
515
515
515
514
516
517
515
514
516
515
513
514
515
514
512
513
514
512
510
511
513
511
510
511
512
510
510
513
512
510
511
513
511
510
511
512
511
509
511
512
511
510
511
512
511
510
512
511
509
509
512
511
509
509
511
511
509
510
512
512
512
514
515
517
517
519
519
518
517
519
517
515
515
517
515
513
514
516
518
526
543
567
587
595
583
554
529
519
521
520
516
514
515
513
510
511
513
513
511
513
514
514
513
515
516
515
515
518
519
518
520
522
522
522
523
525
524
524
525
527
526
525
527
527
526
524
525
524
521
518
517
514
510
509
509
505
502
501
502
500
498
498
499
496
495
495
495
494
493
494
493
492
491
493
493
492
492
494
493
492
493
494
493
492
494
495
493
493
494
494
493
492
493
493
491
492
494
494
492
494
496
495
494
495
497
496
494
496
496
494
492
494
494
492
492
495
494
492
493
494
494
494
496
497
496
494
495
495
494
493
496
496
494
493
495
495
493
494
496
495
494
494
494
493
491
492
492
491
490
493
494
493
492
495
495
494
495
497
495
493
492
491
490
488
489
489
488
488
493
501
512
531
552
561
548
521
500
490
488
490
490
488
485
486
486
484
483
483
484
484
483
485
485
485
484
487
487
486
487
490
489
487
487
489
489
489
492
495
494
494
497
498
497
496
497
495
491
488
488
485
482
480
479
477
474
475
475
473
470
471
471
469
468
470
469
467
467
469
468
467
468
471
471
470
471
473
472
470
472
473
472
472
474
475
474
474
476
476
475
475
478
477
475
477
478
477
477
479
481
480
479
481
482
481
482
485
487
486
486
487
488
487
487
489
490
489
491
494
495
494
495
497
497
497
500
501
500
500
503
504
503
503
505
504
504
506
509
509
508
511
513
514
514
518
519
518
516
518
518
516
515
516
515
514
515
517
516
516
523
536
554
573
587
585
563
538
527
525
526
526
527
526
525
526
528
528
527
529
531
531
530
532
533
534
533
536
536
536
536
539
541
540
542
545
545
545
547
550
551
551
553
554
553
551
552
552
550
549
549
548
544
542
542
541
539
539
540
539
538
538
538
537
535
536
537
537
535
538
538
537
537
540
540
539
539
541
541
540
540
541
541
539
541
542
540
538
538
538
536
536
538
538
536
536
538
537
536
535
536
535
534
535
536
534
532
533
533
532
530
531
532
530
529
530
529
526
526
527
526
524
525
525
524
522
524
526
524
523
525
526
525
523
525
525
524
523
525
525
524
525
527
527
526
528
529
527
526
530
532
532
530
531
531
529
528
529
528
526
526
528
527
526
530
540
554
576
597
605
591
562
540
532
530
529
527
524
520
520
521
520
519
519
521
521
518
519
520
519
517
518
520
518
518
521
522
521
522
525
526
525
526
528
528
527
529
530
528
527
528
527
525
522
522
520
515
512
511
510
507
505
505
504
502
503
503
503
503
505
505
504
502
504
505
504
505
507
508
506
507
509
509
508
508
509
508
506
508
509
508
506
508
509
508
509
511
511
509
510
513
513
511
511
513
514
513
514
516
515
514
516
517
516
515
517
518
517
517
519
518
516
515
518
517
516
517
518
517
514
515
516
515
514
516
516
515
514
516
516
514
513
516
516
515
517
519
519
519
519
521
520
519
521
522
520
518
520
520
517
515
515
514
512
511
511
510
509
517
531
548
568
584
580
555
525
512
510
507
505
505
503
501
500
501
500
498
499
501
501
499
501
502
502
502
504
505
506
505
507
507
506
506
509
509
508
509
511
511
510
511
512
511
509
510
509
506
503
502
500
497
494
494
492
488
487
488
487
485
484
484
483
481
481
482
480
479
481
481
479
478
481
481
479
479
481
481
480
480
482
482
482
485
486
486
484
487
488
487
487
490
491
491
491
493
493
492
493
496
496
495
497
499
499
499
501
503
504
504
506
507
506
505
507
506
505
506
508
508
505
506
508
507
506
507
508
508
507
509
509
508
506
508
508
507
506
508
507
506
505
507
508
508
510
510
509
507
508
506
504
503
505
504
503
502
504
507
515
529
550
564
565
551
525
505
496
497
499
497
494
495
494
492
491
493
493
492
493
494
493
492
491
493
493
492
493
495
495
495
497
499
498
497
500
501
500
500
503
504
502
501
502
500
497
497
498
495
492
491
491
489
487
488
488
486
485
485
485
483
483
485
484
483
483
485
484
483
484
485
485
484
486
487
486
485
487
488
488
488
492
493
493
494
496
497
496
497
499
498
496
498
498
497
495
496
497
497
496
499
500
500
501
504
504
502
503
504
503
503
505
507
506
504
506
507
507
507
510
510
509
509
511
511
510
511
513
511
510
511
513
513
514
516
518
519
520
523
524
523
522
524
523
521
521
522
521
519
519
521
521
526
540
560
580
591
586
564
537
523
523
525
523
522
523
521
519
520
521
521
520
521
523
522
521
524
525
524
523
526
528
528
528
531
531
530
530
533
534
534
537
539
538
537
538
539
537
536
537
536
532
530
530
528
524
522
523
522
520
518
518
517
515
516
517
516
514
516
516
515
513
515
516
515
515
517
517
516
514
516
516
515
517
518
517
516
518
518
517
517
521
521
521
520
522
522
521
521
524
523
522
523
524
524
524
525
527
526
525
526
526
525
524
525
526
524
524
525
524
521
521
523
522
521
521
522
521
519
521
522
520
519
521
521
519
519
520
519
517
517
521
520
518
519
521
521
521
522
522
521
520
522
522
519
517
519
518
517
517
519
522
528
542
564
586
597
590
566
537
523
524
523
519
515
514
514
512
511
513
513
512
512
514
514
514
516
518
518
517
519
522
522
522
524
525
524
525
528
529
528
529
531
532
530
531
532
530
529
528
529
526
524
524
521
519
516
516
514
511
508
508
506
503
503
504
503
502
502
502
501
499
501
501
499
498
499
499
498
498
499
498
497
497
499
499
497
497
497
496
495
496
497
496
495
497
497
495
494
496
496
495
495
497
496
494
495
497
497
496
498
499
497
496
498
499
498
498
500
501
499
499
502
501
500
500
501
500
498
498
499
498
498
500
502
500
498
500
500
499
498
499
500
499
500
502
501
500
501
503
503
502
503
502
500
497
498
498
497
495
497
497
495
496
505
517
535
555
567
559
532
507
495
493
492
493
492
490
487
488
488
486
485
487
486
485
484
485
484
483
483
484
484
484
486
488
487
486
488
490
490
490
492
492
493
494
497
496
495
495
497
496
492
491
491
487
483
483
483
481
479
479
477
474
473
473
472
470
470
471
470
469
469
470
469
468
469
471
471
470
473
474
474
474
478
479
478
478
480
481
481
482
483
483
483
486
488
489
490
492
493
493
492
494
495
494
494
497
497
497
498
500
500
500
502
504
505
504
507
509
509
509
512
512
512
512
515
516
516
516
517
516
515
516
520
520
520
523
525
525
525
529
531
530
529
531
531
528
527
530
529
528
528
530
531
534
544
559
579
597
606
596
568
544
537
538
538
536
536
536
533
533
535
536
534
536
538
537
536
539
541
541
540
543
543
544
544
547
547
546
547
549
549
548
550
553
553
553
554
555
554
552
553
553
550
547
546
544
542
540
540
538
535
535
535
535
534
534
535
534
533
534
535
534
533
535
534
533
532
534
534
534
534
536
536
535
535
537
537
535
536
538
537
536
538
538
537
537
539
539
537
537
538
537
536
536
537
536
533
533
535
533
531
532
531
530
529
531
530
529
528
529
529
528
527
528
528
527
528
529
528
527
529
530
528
527
528
529
528
528
530
530
529
528
530
530
529
530
533
533
532
533
535
535
534
535
535
533
531
532
530
528
527
528
526
525
524
528
534
546
568
591
602
593
568
540
526
523
524
521
518
515
515
514
512
512
514
513
512
512
513
513
513
514
515
515
515
517
519
519
519
522
522
521
522
525
526
525
525
527
526
524
525
526
525
522
523
522
518
514
513
511
507
505
506
504
503
503
504
503
502
503
503
502
500
502
503
501
501
503
502
500
499
501
500
499
499
501
501
500
500
502
502
501
502
504
503
501
503
502
501
500
502
502
501
501
502
501
500
500
502
501
499
500
501
500
499
499
500
499
498
499
499
498
498
500
500
499
498
500
499
497
497
498
497
496
497
498
496
494
495
495
494
494
496
496
495
495
497
496
495
495
497
497
495
496
497
497
497
500
500
498
495
497
497
495
493
494
493
491
491
492
491
491
498
513
532
553
567
565
540
511
498
497
496
493
492
491
489
488
489
488
486
487
488
488
486
487
488
488
487
488
489
489
489
492
492
492
493
497
497
496
498
500
499
498
499
502
501
499
500
500
498
496
496
494
491
489
488
486
484
482
483
482
480
479
481
480
478
478
480
479
478
480
480
479
479
480
480
480
480
482
481
480
481
484
483
483
484
487
486
484
487
489
488
486
488
489
488
487
489
488
486
486
488
487
485
485
486
486
485
487
489
488
488
489
489
489
488
490
489
487
486
487
487
485
486
487
485
483
484
486
485
484
488
489
488
487
489
490
489
489
490
490
490
493
495
495
493
493
494
493
490
490
490
489
487
490
491
492
496
507
523
541
556
560
544
516
498
492
492
493
494
494
493
491
492
494
494
494
498
499
499
500
503
504
504
506
509
510
511
513
515
514
513
516
519
519
520
524
526
526
526
529
528
526
526
528
527
523
522
521
518
515
516
516
515
513
515
516
515
515
517
517
516
516
518
518
516
518
520
519
519
520
522
521
520
522
522
520
519
521
521
520
520
523
523
522
522
525
525
524
526
528
527
525
527
528
527
526
528
528
528
527
529
529
528
528
529
529
527
526
528
527
526
527
527
526
525
528
528
526
526
528
528
525
525
528
528
526
526
527
526
524
526
528
528
527
530
532
532
532
535
536
534
533
534
534
531
529
530
530
529
529
529
529
532
542
558
579
596
604
591
562
538
532
533
532
530
530
529
528
528
528
528
527
528
531
531
530
533
534
532
531
533
534
532
532
534
535
533
534
537
537
536
537
539
538
538
539
540
538
536
537
536
533
530
528
525
522
519
519
517
514
513
513
511
508
508
509
508
507
508
509
507
506
507
508
507
507
508
508
508
509
511
510
508
508
510
510
510
511
512
510
510
512
513
512
512
515
516
514
513
515
515
514
515
516
516
515
516
517
517
515
517
517
516
515
517
516
515
515
517
518
516
516
517
517
516
516
517
516
514
516
517
516
516
517
518
519
519
521
522
520
520
523
525
524
524
527
527
526
527
527
526
525
527
527
526
524
525
525
524
523
524
527
535
553
578
597
599
582
553
532
525
526
525
520
516
516
515
513
511
512
511
509
509
511
511
510
511
510
509
507
508
509
507
505
506
505
504
504
507
507
507
508
511
511
509
509
510
509
507
507
506
502
499
499
496
493
491
490
488
485
483
484
484
482
481
483
482
481
481
481
480
478
480
481
480
479
479
479
477
475
477
477
477
477
480
480
479
480
482
482
481
481
482
481
479
480
481
479
478
479
479
477
477
478
479
478
478
480
481
481
482
483
482
481
482
483
482
481
482
480
479
477
479
478
475
475
476
475
474
474
475
473
472
474
475
474
474
476
476
476
477
479
479
478
478
479
478
476
476
476
475
473
474
475
475
474
481
492
510
529
542
539
517
491
478
475
475
475
475
473
472
473
474
474
474
475
477
477
477
479
480
479
479
482
483
483
484
487
487
488
489
492
492
493
496
498
498
497
500
502
501
501
503
503
502
502
503
502
500
499
500
499
497
497
499
498
497
500
501
501
501
503
504
503
504
507
507
507
507
509
510
510
511
513
514
513
516
518
518
518
520
522
521
521
524
525
524
524
526
526
524
524
526
526
525
527
528
526
526
528
530
529
528
530
529
528
527
528
528
526
525
527
527
526
527
529
528
526
528
530
529
528
530
530
530
530
532
531
530
531
534
534
534
537
539
538
537
538
539
537
534
536
536
534
533
534
536
542
554
577
597
606
598
575
550
537
536
537
535
531
531
531
530
530
533
533
533
534
537
539
539
540
543
545
545
546
547
547
547
547
548
548
547
549
551
551
552
555
557
557
557
559
559
558
557
556
553
548
546
545
542
538
538
538
536
533
534
534
532
531
532
531
529
528
530
529
528
529
530
530
528
529
530
529
527
528
528
527
526
528
528
527
526
527
526
524
525
526
525
524
525
526
524
523
525
526
525
524
526
526
525
524
526
526
524
523
524
524
523
525
526
525
524
525
527
526
524
525
525
524
522
523
523
521
520
521
520
517
517
518
517
516
516
517
516
514
516
517
516
515
515
515
513
512
512
510
508
508
509
507
507
508
512
519
532
554
578
592
585
561
533
518
515
516
513
509
508
508
507
504
505
506
506
505
508
509
508
507
510
511
510
510
513
514
514
514
516
517
517
518
521
521
521
523
524
523
522
523
523
520
519
520
519
517
516
516
515
513
511
511
509
508
507
507
505
502
503
503
502
500
502
502
500
499
500
501
499
498
501
501
500
501
503
502
501
503
504
503
501
502
502
501
500
501
502
499
498
499
498
495
495
497
496
495
495
496
493
492
493
494
494
494
496
495
492
490
491
491
489
489
491
491
489
489
489
487
484
484
485
483
482
483
484
483
482
484
484
482
483
486
486
484
483
485
485
484
486
487
485
482
483
483
481
480
480
479
478
477
479
482
488
503
528
548
553
540
513
490
480
482
483
480
477
478
477
475
475
478
479
478
479
481
481
480
481
483
484
482
483
484
483
482
486
486
486
485
488
488
487
487
490
489
487
487
489
487
484
484
485
483
479
479
479
476
473
474
472
470
469
471
471
470
470
471
470
469
470
471
470
469
470
471
470
468
469
469
469
468
470
471
471
472
474
473
471
471
472
472
471
473
474
474
474
476
477
476
474
477
478
476
475
479
480
479
479
481
482
482
484
485
485
485
487
488
487
486
488
488
488
488
491
491
491
492
495
496
495
496
498
499
500
502
503
503
503
505
505
503
502
505
505
504
503
505
506
505
511
524
542
562
577
577
556
529
515
514
516
516
517
516
513
512
514
515
515
516
519
520
521
522
523
523
524
526
528
529
529
533
536
536
536
540
542
541
542
543
544
544
546
549
548
546
546
546
545
542
541
539
537
534
535
533
531
529
530
529
528
528
530
530
528
529
532
532
530
533
535
534
533
535
536
536
536
538
538
537
538
541
541
540
541
543
542
541
542
544
544
543
545
547
546
546
547
547
546
546
547
547
545
544
546
545
544
544
544
544
544
545
545
544
542
545
545
545
545
547
548
547
546
548
548
547
547
547
546
545
544
544
542
541
542
543
542
541
544
544
544
545
547
546
544
543
543
541
538
538
539
539
538
539
540
540
543
557
576
597
613
614
595
566
549
546
545
542
539
538
537
536
536
536
535
534
536
537
536
535
535
535
533
532
534
534
533
534
537
536
535
536
537
536
534
537
538
537
537
538
538
535
533
533
531
528
525
524
522
518
517
517
515
513
513
513
512
510
511
510
509
508
510
511
509
510
512
511
510
509
510
508
506
508
510
509
508
510
511
511
510
511
511
510
510
512
512
511
511
513
512
510
510
511
510
510
510
511
509
507
508
508
507
506
508
508
507
507
509
508
507
507
508
508
506
506
507
507
506
506
506
505
504
505
505
504
504
505
505
503
503
505
503
501
501
502
502
502
503
504
503
502
504
503
501
500
500
497
494
493
493
491
489
489
488
489
492
505
525
547
560
556
532
501
483
482
481
476
472
472
470
468
469
470
469
467
468
469
469
468
469
470
468
467
469
470
470
470
473
473
472
472
473
472
470
471
473
472
471
474
474
472
471
471
470
467
464
464
462
458
455
456
455
452
452
454
453
451
451
451
449
447
449
450
449
449
452
453
452
451
453
453
452
452
454
454
454
456
458
458
457
457
459
458
458
459
460
460
460
462
462
461
461
463
462
461
462
464
464
461
463
464
465
463
464
465
464
463
465
464
464
464
466
466
465
465
467
468
468
470
472
472
471
473
474
472
472
473
475
474
474
477
476
476
476
478
479
478
479
481
478
477
480
482
480
478
478
479
483
492
509
530
544
545
531
504
484
479
484
485
483
484
484
483
481
482
483
483
482
485
486
487
487
489
491
491
492
495
496
496
497
499
498
499
502
505
507
507
511
513
513
513
516
515
514
514
515
513
511
510
510
507
503
503
503
501
499
500
501
500
499
502
504
503
503
505
505
504
506
509
510
509
511
513
513
512
513
516
517
518
520
521
520
520
523
524
523
524
526
525
525
526
528
527
527
527
529
529
528
530
531
529
528
530
532
531
531
534
535
533
532
534
533
532
533
535
535
535
537
538
537
537
539
540
539
539
543
544
544
544
547
547
544
542
542
542
541
542
542
541
541
545
551
561
578
602
617
617
599
573
555
551
552
554
552
549
549
550
548
547
550
551
550
549
552
553
552
552
555
555
555
556
558
558
558
559
562
562
561
563
564
564
564
566
566
565
565
567
565
562
560
561
559
556
555
555
553
550
549
548
545
542
542
541
540
539
541
541
540
540
542
542
540
540
541
540
541
542
543
542
541
544
546
546
545
546
547
546
545
546
546
546
545
546
544
543
544
544
542
540
541
541
539
537
538
539
538
536
536
535
533
531
531
530
528
528
529
528
526
526
527
527
526
527
527
525
523
526
526
525
524
526
526
524
525
527
527
526
527
527
527
526
527
528
528
528
528
528
526
524
526
525
522
521
522
521
520
519
520
520
526
540
561
584
597
596
572
540
523
522
520
515
510
509
507
504
503
504
503
502
503
504
502
500
502
502
501
501
502
503
502
502
504
505
504
505
507
507
505
506
507
507
506
506
507
506
504
504
502
499
496
494
492
488
486
486
484
482
481
481
479
477
477
478
477
476
477
477
476
473
475
476
476
477
480
480
480
479
480
481
481
482
483
483
481
483
484
483
482
484
484
484
483
485
485
483
482
483
483
482
482
484
483
482
484
485
484
483
485
486
486
485
486
486
486
485
488
488
487
488
490
490
489
490
491
492
490
491
491
489
487
489
489
487
485
486
486
488
498
516
538
554
556
541
510
488
484
486
486
483
483
482
480
478
479
480
479
479
481
481
481
481
483
483
482
483
484
484
484
486
487
486
486
491
492
493
493
496
497
496
497
498
497
494
492
492
490
487
484
483
480
477
477
476
474
472
473
472
470
471
474
473
472
472
473
473
472
473
474
473
473
475
477
476
476
479
481
481
482
484
485
484
485
487
487
486
486
488
488
488
490
491
491
490
492
493
492
492
494
495
495
494
496
497
497
498
500
500
499
501
503
503
503
506
508
508
508
510
513
512
512
514
515
514
514
515
514
513
514
516
515
514
515
519
524
536
557
577
586
580
559
531
516
515
518
518
514
514
515
516
515
517
519
518
518
520
522
522
521
523
525
525
524
527
528
529
529
531
531
532
536
537
535
534
536
538
537
535
536
535
532
531
530
526
523
520
519
515
510
508
507
505
502
504
504
503
501
503
503
502
502
504
504
503
504
506
507
505
506
508
508
508
510
512
512
509
511
513
512
512
514
514
513
513
516
515
514
515
517
517
516
518
520
520
518
520
521
520
518
519
519
519
518
519
519
519
518
519
518
517
518
519
519
519
520
520
518
515
515
514
511
509
511
511
511
512
519
531
548
569
583
580
558
532
518
516
516
516
515
512
510
511
511
511
510
511
512
511
511
513
512
512
514
516
515
514
517
518
518
517
520
521
520
519
521
521
519
519
522
522
522
522
522
520
516
515
515
512
510
509
507
504
501
503
502
500
500
502
503
501
500
502
501
500
501
503
504
504
507
508
508
508
510
510
510
510
512
512
511
511
512
511
509
509
510
509
508
508
509
509
508
510
510
509
508
510
511
510
512
515
514
512
513
516
517
516
517
519
519
519
521
523
522
521
522
522
521
520
522
522
521
521
524
523
524
529
541
558
580
598
602
584
554
536
532
532
532
533
531
528
527
528
528
526
526
526
526
525
526
528
528
526
527
526
525
524
526
527
526
525
527
528
527
527
528
528
527
528
529
528
526
525
525
523
521
520
518
514
510
510
508
505
503
504
503
500
500
500
500
498
499
500
499
498
499
499
498
497
499
499
498
498
501
501
501
501
503
502
501
501
502
501
500
501
503
502
501
502
502
500
499
499
499
498
498
498
496
496
497
498
498
497
498
500
499
497
498
499
497
496
498
498
497
496
498
497
496
497
499
500
500
502
504
505
505
507
507
506
504
505
505
501
500
501
501
499
499
500
501
504
516
536
560
578
583
566
534
511
507
506
504
501
499
497
496
495
495
494
494
495
496
497
497
497
499
499
499
501
501
501
501
503
503
503
503
504
505
504
505
507
506
505
504
506
504
502
502
501
499
496
494
493
489
487
487
485
483
482
482
482
481
480
481
479
476
477
476
476
475
476
477
477
476
478
479
478
477
479
479
478
477
479
479
478
478
480
479
478
479
480
480
479
481
482
481
481
483
483
481
481
482
482
481
482
485
485
484
486
486
485
485
487
487
486
485
486
486
484
484
486
486
486
487
489
489
488
489
491
492
491
493
493
491
489
490
489
487
486
488
488
486
486
487
487
490
501
519
539
554
557
540
510
491
486
488
487
485
485
483
481
481
483
484
482
484
485
485
485
487
488
488
489
491
493
492
491
494
495
495
495
497
497
495
496
499
499
498
499
500
500
500
500
499
497
494
494
493
490
488
488
487
484
482
484
484
483
483
484
484
483
484
485
485
483
485
487
487
486
488
488
487
486
488
488
488
489
491
492
491
493
495
495
495
496
497
496
496
498
498
497
497
498
498
498
498
499
499
498
498
500
500
500
502
504
504
503
505
506
506
506
509
508
507
508
509
508
505
505
506
505
504
505
507
508
511
522
540
560
574
576
559
532
513
510
511
511
511
511
510
509
509
510
511
510
513
515
516
516
518
520
520
520
523
525
525
525
527
528
527
527
530
531
531
533
536
536
534
536
537
535
533
534
533
531
529
528
526
523
522
523
521
519
520
519
518
516
517
518
517
515
517
517
516
515
517
517
516
516
518
518
517
518
520
520
519
520
522
522
521
523
523
523
522
524
524
522
521
523
524
523
524
526
525
525
526
527
526
526
528
528
526
525
527
528
527
526
528
529
528
528
530
529
527
528
529
528
527
529
529
528
528
530
530
530
531
535
537
537
538
540
540
539
539
539
537
536
537
538
537
536
538
543
553
569
593
610
613
597
571
551
544
544
544
541
538
538
539
538
536
536
537
537
536
539
540
540
539
541
542
541
543
544
544
543
544
545
545
545
547
548
548
547
548
548
548
547
548
547
545
544
543
541
537
535
534
532
529
527
526
524
522
523
524
523
522
524
524
522
520
522
522
521
520
521
519
518
518
518
518
517
518
519
518
517
519
520
519
519
520
519
518
516
517
516
514
514
515
514
513
513
514
513
512
514
514
513
513
514
515
514
514
515
515
514
514
514
513
512
514
515
514
513
514
515
514
512
513
513
513
511
514
514
513
513
516
517
515
516
518
517
514
514
514
512
510
511
511
509
508
510
514
520
535
558
581
592
585
559
531
518
518
519
516
512
511
510
508
507
508
507
506
506
508
508
507
508
509
509
507
508
510
510
511
512
513
513
514
516
517
516
515
516
517
515
514
516
515
513
511
511
508
505
503
502
498
495
494
492
489
487
486
486
484
482
483
482
480
479
480
479
477
477
478
478
476
477
477
475
474
476
476
474
472
474
474
473
473
475
475
473
473
474
474
472
473
475
473
471
471
471
470
468
469
469
468
468
470
470
469
470
471
471
469
469
471
471
470
472
473
472
472
475
476
475
475
477
477
476
476
477
477
476
477
479
479
479
482
484
484
484
485
486
484
483
484
484
482
482
483
483
482
484
489
498
514
536
553
554
536
509
490
484
485
488
487
484
484
486
486
485
485
487
487
486
488
490
490
490
492
493
494
494
495
497
497
498
501
502
502
503
505
506
506
508
509
508
507
507
506
505
503
503
501
499
496
495
494
491
490
491
489
487
487
488
487
486
485
486
485
484
485
485
484
483
485
485
484
484
486
487
487
488
489
490
489
490
491
492
492
494
495
493
492
493
494
494
493
495
495
494
493
495
496
495
496
497
497
496
497
498
498
497
498
498
498
498
499
500
501
502
504
504
503
503
504
504
501
501
503
503
503
504
504
503
505
513
526
543
562
576
571
547
523
510
508
508
508
507
506
505
506
507
506
505
507
509
510
510
512
511
510
510
512
513
513
513
515
515
515
517
520
520
519
521
524
524
523
524
525
525
524
526
525
523
520
521
519
516
514
514
513
510
510
510
509
508
509
509
507
506
508
508
508
508
509
510
509
510
512
512
511
513
513
513
512
515
516
515
514
516
517
517
516
517
517
515
516
516
516
515
515
516
516
515
516
519
519
518
519
519
518
517
519
518
517
516
518
518
517
518
519
518
516
516
517
517
515
516
516
515
513
515
515
514
513
515
515
514
515
517
517
516
518
520
520
519
521
521
519
517
516
515
514
512
514
514
513
514
522
534
550
573
589
588
566
538
522
518
517
517
515
513
512
513
513
511
511
514
514
513
514
516
516
515
516
517
517
516
518
519
519
519
521
522
523
523
526
527
527
527
528
528
527
526
527
526
523
522
521
520
517
517
515
513
510
511
509
507
505
507
506
504
503
504
504
502
504
505
505
504
506
507
506
505
506
506
505
505
507
507
507
507
509
509
508
509
509
508
506
506
506
504
503
505
505
504
503
504
504
503
504
506
505
505
505
507
507
506
506
507
507
506
507
507
506
506
507
508
507
507
509
508
508
508
510
508
507
508
509
508
508
510
510
509
508
510
511
510
510
512
511
509
508
509
508
506
507
508
506
506
511
524
540
562
582
588
572
541
520
514
514
512
511
510
508
508
510
509
507
507
509
509
508
510
511
510
509
511
513
513
514
516
516
515
516
519
520
520
521
522
522
521
523
524
523
521
521
521
519
516
516
515
511
508
509
507
503
502
501
500
498
497
497
495
494
493
493
492
491
493
493
493
492
494
493
491
491
492
492
491
494
494
493
492
494
495
494
493
496
496
495
495
496
496
493
493
495
496
494
494
495
494
493
495
496
495
494
496
497
495
494
495
496
495
495
496
496
495
495
496
495
494
495
496
495
494
496
496
496
496
498
499
498
500
502
503
502
502
502
501
498
498
499
499
496
497
497
496
495
498
503
514
531
554
569
565
544
519
502
498
500
502
499
497
497
497
496
494
496
497
497
496
498
499
498
498
500
501
501
501
503
503
503
505
506
507
507
510
513
512
511
513
514
513
512
514
513
510
508
508
505
501
501
500
499
497
497
497
495
493
495
495
495
494
496
496
494
493
495
495
495
495
496
497
496
497
499
497
496
498
500
500
499
501
501
500
499
500
500
499
499
500
499
498
498
499
499
498
499
499
497
496
498
499
499
499
501
501
500
500
501
501
501
503
505
505
504
506
509
510
510
512
512
511
509
509
508
506
506
507
507
505
505
508
512
520
537
559
574
574
558
532
513
506
510
511
509
507
508
508
506
506
509
510
511
513
516
516
516
518
519
520
520
523
523
524
524
526
527
527
528
531
531
530
532
533
533
532
532
533
532
531
530
528
525
522
522
521
519
516
516
514
513
513
515
514
512
513
513
513
512
513
514
515
515
517
518
518
517
519
519
519
519
521
521
520
520
521
521
519
521
522
522
522
524
524
523
521
523
523
521
520
521
521
520
520
521
521
519
520
520
520
520
521
520
519
518
520
520
519
519
520
520
519
519
520
520
519
519
520
520
518
519
520
518
518
520
521
521
521
523
524
523
523
525
524
523
521
521
521
519
519
519
518
518
523
532
546
567
589
599
590
563
539
527
526
526
526
524
520
519
518
518
518
519
521
521
520
523
524
523
522
523
523
523
524
526
527
527
528
529
530
530
531
532
533
532
534
534
532
531
532
531
529
527
527
525
522
520
519
517
514
514
514
512
510
510
511
510
510
511
511
509
508
509
509
509
509
511
511
510
510
512
511
510
511
511
509
508
510
512
511
510
512
512
511
511
512
512
510
511
511
510
509
510
511
511
510
511
512
511
510
512
512
510
509
510
509
509
509
510
509
508
509
510
509
507
508
509
507
506
507
508
508
508
510
510
510
510
513
514
515
517
519
519
517
517
517
516
513
513
513
512
511
512
512
510
511
520
536
557
580
592
583
554
527
516
514
511
510
508
505
502
503
502
501
501
502
502
501
501
502
502
501
503
504
504
502
504
506
506
505
507
508
508
508
511
511
511
511
513
512
510
510
510
509
506
506
505
502
498
498
496
494
492
492
491
490
489
489
489
487
487
487
487
486
486
487
487
486
487
488
487
486
487
488
488
488
490
491
490
490
491
490
489
490
490
489
488
489
490
489
488
490
491
492
491
493
494
493
491
493
492
492
492
493
493
491
492
493
492
491
492
492
493
492
495
495
495
495
496
496
496
497
499
499
498
498
498
497
493
493
493
492
491
493
492
491
491
497
506
521
541
557
557
536
510
494
489
490
492
492
491
489
491
491
491
490
491
493
493
493
496
496
495
495
496
496
496
498
501
502
500
502
504
504
504
506
507
507
506
507
508
508
508
509
508
505
504
503
500
498
498
497
495
493
494
494
492
491
492
492
490
490
490
489
488
488
489
490
489
491
492
492
492
494
495
494
494
496
496
497
497
499
499
498
498
500
501
500
500
501
501
499
499
500
500
499
501
501
501
500
502
501
501
500
501
502
501
502
503
503
502
502
503
503
502
505
506
507
506
508
509
510
511
514
514
513
512
512
510
508
508
509
509
508
509
510
511
516
530
548
568
578
575
553
526
512
511
513
512
510
509
508
507
507
507
507
506
508
511
511
510
513
514
514
514
516
516
515
516
519
520
520
522
524
525
525
526
527
527
526
527
527
526
524
525
525
523
521
521
520
517
516
515
514
511
511
512
511
509
511
511
510
509
511
510
510
510
511
512
511
512
514
514
513
513
514
513
513
514
515
514
513
514
515
515
515
518
518
518
518
520
520
519
519
520
520
518
518
519
518
517
519
520
519
517
518
518
517
517
519
519
518
518
519
518
517
518
520
520
519
521
521
521
521
522
522
522
522
525
525
525
526
528
528
528
528
528
526
524
523
523
522
520
520
520
520
523
532
546
565
586
599
591
564
538
528
526
524
521
520
518
517
518
518
516
515
517
518
517
517
519
520
519
521
523
524
524
525
527
528
527
529
530
531
532
533
534
534
534
536
535
534
534
534
533
530
529
528
526
523
522
521
520
518
518
518
516
515
515
514
513
513
514
513
511
512
513
513
512
513
515
515
514
514
514
513
512
514
515
514
513
513
511
509
509
510
509
508
508
509
509
508
509
510
510
509
511
511
511
510
512
512
511
510
511
511
510
511
512
511
510
511
512
512
511
513
513
513
511
512
512
510
508
510
510
509
509
510
510
510
511
513
513
512
514
516
516
515
516
516
515
514
515
514
513
512
512
511
509
509
510
511
517
532
554
576
588
583
558
529
516
516
515
512
509
510
509
506
504
504
504
503
503
504
504
503
505
506
505
503
504
505
506
505
507
506
505
506
510
510
509
510
511
511
510
511
512
510
508
509
507
504
502
502
499
496
494
494
492
489
489
489
488
487
487
488
487
486
486
486
485
484
486
486
485
486
487
487
486
487
489
489
489
489
490
490
490
491
492
492
491
492
493
493
494
496
496
495
495
497
496
495
494
496
496
495
496
496
495
495
497
497
497
496
499
500
500
500
501
501
501
502
503
501
499
500
501
501
501
503
504
505
506
509
509
508
508
509
507
505
503
504
503
502
503
503
503
502
506
514
527
545
566
576
568
543
519
506
504
506
508
507
504
504
504
503
501
502
503
503
502
504
506
506
506
507
508
508
509
511
512
511
512
514
515
514
515
517
517
515
517
519
518
517
518
519
517
514
513
511
508
507
507
505
503
502
502
501
500
499
500
499
498
498
498
498
498
500
500
500
500
502
502
501
501
502
501
500
501
502
502
502
505
505
504
504
506
506
506
505
506
506
505
505
507
506
505
505
506
506
505
506
507
507
506
507
507
506
505
507
507
506
506
508
509
508
507
508
507
506
507
508
509
509
511
512
511
511
514
515
514
515
519
518
516
515
516
514
511
510
510
510
509
510
510
509
509
516
528
546
568
584
585
565
537
521
518
518
517
515
513
511
512
513
513
511
513
514
513
512
514
515
515
515
516
517
516
517
519
520
520
520
522
522
522
524
525
526
525
526
526
526
525
526
526
523
522
521
519
515
514
514
513
511
512
510
509
507
509
509
508
507
509
509
508
508
511
511
510
511
512
512
511
511
512
513
513
514
515
515
514
515
515
514
514
514
514
512
512
513
513
511
513
515
515
514
514
514
513
511
512
513
514
514
514
514
516
517
517
518
518
519
519
519
517
516
515
515
514
515
514
513
511
514
513
511
509
511
511
508
508
511
511
510
511
514
515
515
517
517
516
515
516
514
509
509
512
513
511
511
513
512
513
520
534
553
575
591
590
568
536
520
517
517
513
511
508
505
505
505
504
503
504
505
504
503
505
507
507
506
507
507
507
508
511
511
509
509
512
513
512
512
514
514
513
514
515
514
512
511
511
509
505
506
504
501
498
499
498
496
494
492
492
490
489
490
489
488
487
487
486
484
487
489
488
487
489
489
487
486
487
487
486
486
487
487
486
486
487
487
485
486
487
487
486
487
487
485
484
486
485
484
484
485
485
484
485
486
486
485
486
487
486
484
485
486
485
485
486
485
484
484
485
485
486
486
487
487
486
489
491
490
490
492
494
494
493
495
494
491
490
491
490
489
488
488
488
487
487
490
495
507
528
548
559
552
528
503
488
487
491
491
488
486
487
486
485
486
486
487
485
486
488
488
489
491
493
492
491
494
495
496
496
497
498
497
497
499
499
499
499
501
501
500
501
501
500
497
496
495
493
491
491
489
488
488
488
487
484
484
484
484
484
485
486
485
485
486
486
485
485
486
487
486
485
486
486
485
486
488
488
487
488
488
488
487
489
489
489
488
490
491
490
490
492
492
492
493
494
495
494
495
497
496
495
496
497
497
496
497
498
497
496
497
497
497
497
497
497
496
498
499
499
498
500
502
503
503
504
504
502
500
500
500
498
498
498
499
498
498
502
509
521
542
562
569
557
532
508
497
497
500
500
498
498
499
499
497
497
498
498
498
498
500
501
500
500
502
503
503
506
508
508
509
511
514
515
516
519
520
520
520
521
521
520
521
520
520
517
517
516
514
511
511
510
508
506
507
507
506
506
507
507
505
505
506
506
504
503
504
504
503
505
505
505
505
507
507
507
508
509
510
509
510
512
513
512
513
514
514
512
514
514
513
513
515
515
515
514
515
513
512
512
513
512
511
512
512
512
512
514
515
516
516
517
516
516
515
517
516
515
514
516
518
517
518
518
517
516
517
518
517
515
517
518
518
517
519
520
520
520
521
520
520
523
524
524
522
522
521
520
517
517
517
514
512
514
513
513
514
524
537
557
577
589
580
554
529
518
517
514
513
510
508
506
506
505
504
504
506
506
506
507
508
507
506
507
508
509
509
511
513
514
514
517
517
516
517
519
519
519
518
519
518
517
516
516
516
515
514
512
509
506
505
504
502
500
499
497
495
494
494
494
493
493
493
492
492
492
493
494
492
493
495
495
495
496
496
495
494
495
495
495
494
496
496
496
496
497
497
496
496
498
498
497
498
499
499
498
498
497
496
496
498
497
496
496
497
496
495
496
497
497
496
497
497
497
496
497
497
496
495
497
498
497
497
499
498
499
499
500
500
499
501
502
502
501
503
504
505
504
505
505
505
504
504
503
501
501
503
501
500
500
500
502
505
517
534
553
566
567
549
523
505
501
503
504
503
503
502
500
500
502
502
502
503
505
506
505
505
505
505
505
508
509
510
511
513
515
515
516
519
519
518
520
521
522
521
523
523
523
522
523
522
521
519
518
517
515
514
514
512
510
510
510
509
508
509
508
508
506
507
508
508
508
509
510
510
511
513
514
513
514
516
516
516
517
518
519
518
519
519
519
518
519
519
519
519
522
522
522
521
522
521
519
518
519
520
518
519
519
519
518
519
519
520
518
520
520
520
520
522
522
522
522
524
523
522
523
524
523
522
524
525
525
524
526
527
525
525
527
528
527
528
528
528
528
530
532
532
530
530
529
527
525
526
526
524
524
525
524
523
524
531
541
558
579
593
591
569
543
529
526
525
526
524
522
520
521
520
519
517
518
518
517
517
517
517
516
517
518
518
518
520
521
520
520
522
523
523
523
524
525
525
525
527
526
524
523
523
521
518
518
516
514
510
509
509
507
504
505
504
503
502
502
502
500
500
501
502
500
500
501
500
499
501
501
500
500
501
502
501
500
501
501
500
501
502
502
502
503
504
504
502
503
503
504
503
504
504
503
503
505
505
504
503
504
505
505
506
507
506
505
506
507
507
506
507
507
507
506
507
507
506
506
507
508
507
507
507
507
506
507
507
507
506
507
507
506
506
508
508
509
509
511
513
511
512
514
515
515
517
518
516
515
514
513
512
511
511
511
510
509
510
511
514
524
540
562
582
591
579
551
526
520
520
517
514
513
512
510
508
509
509
510
510
512
513
513
514
515
516
516
517
518
518
517
518
519
520
520
521
522
523
522
525
525
525
525
527
528
526
525
524
522
519
517
516
514
510
508
507
505
503
503
502
501
499
500
500
500
500
501
502
500
500
500
500
499
500
501
500
500
500
501
501
501
501
501
500
499
500
499
498
498
499
499
497
498
499
498
497
498
498
497
496
498
498
496
496
497
497
497
497
498
498
497
498
500
500
499
500
501
501
499
500
500
499
497
497
497
497
497
498
498
497
498
498
499
499
501
501
500
501
504
504
504
503
503
502
500
498
499
499
497
497
497
496
495
497
505
518
538
560
572
564
537
513
502
500
501
501
499
497
496
497
497
495
496
498
497
497
498
499
499
499
500
501
501
501
503
504
504
505
507
508
509
510
512
513
513
514
515
514
514
515
515
514
512
511
508
506
504
503
500
497
495
495
494
493
494
494
493
491
493
494
494
492
492
492
492
491
491
491
490
490
492
492
491
491
492
493
493
495
495
494
493
495
494
494
494
495
495
495
495
496
495
494
494
495
495
494
495
497
496
495
497
498
498
497
498
498
498
497
499
499
498
498
500
500
500
501
502
502
502
503
504
505
505
508
509
510
510
511
510
508
506
507
506
504
504
505
505
504
504
506
510
518
535
554
567
567
552
526
508
502
505
507
505
504
505
504
504
504
506
507
507
508
510
510
510
512
513
512
512
514
515
515
515
518
518
517
518
521
521
521
522
523
523
521
522
523
522
520
520
518
516
515
516
514
512
511
510
509
507
507
507
505
503
504
504
503
501
502
502
503
503
504
505
505
504
505
505
504
506
507
507
506
507
507
506
506
507
508
508
507
509
509
509
509
510
511
510
510
511
511
510
511
512
511
510
512
513
513
512
512
512
511
510
511
510
509
509
510
509
508
509
510
510
508
510
511
510
509
510
511
513
512
514
515
514
515
516
516
516
516
517
515
514
513
513
512
511
511
511
511
511
519
530
548
570
587
586
565
538
522
519
520
521
520
518
516
517
518
518
516
517
519
519
519
520
520
520
520
522
523
523
524
526
527
527
528
529
530
529
531
532
532
532
534
533
532
531
530
530
528
526
526
523
520
518
517
515
512
511
510
508
507
508
507
505
504
505
505
505
505
506
507
507
507
508
508
508
510
509
508
507
509
509
509
508
510
510
510
510
511
511
510
510
511
511
510
511
511
511
508
508
509
508
507
508
509
509
508
510
510
510
510
512
512
510
511
512
511
510
510
511
511
511
512
513
511
510
511
511
510
512
514
514
513
514
515
515
513
514
515
515
515
516
518
517
517
520
521
522
521
522
523
521
519
518
518
516
517
517
515
516
523
534
550
572
590
592
572
542
524
520
519
518
516
514
511
510
510
508
506
507
508
508
508
511
512
512
512
514
514
515
515
517
518
518
519
522
522
522
524
525
525
525
526
527
526
525
525
524
523
520
519
516
513
510
510
508
507
506
505
504
503
503
503
502
501
502
503
502
501
502
502
502
502
504
503
502
502
503
502
500
501
502
502
501
502
502
501
501
502
502
501
500
501
501
499
499
499
499
497
497
497
496
495
495
495
495
494
495
495
494
492
493
493
491
490
491
490
489
490
491
491
492
492
493
492
492
493
493
493
492
494
495
494
494
497
498
498
498
499
499
497
496
496
494
491
491
491
491
490
491
492
494
501
517
536
556
568
560
533
507
495
496
497
495
493
493
492
490
491
492
492
492
493
494
495
495
496
496
496
496
497
498
498
499
501
502
501
503
506
506
507
508
509
508
507
509
509
508
507
508
506
503
502
500
497
494
494
492
490
490
490
490
488
487
487
486
484
484
485
485
484
485
486
486
486
487
488
487
487
488
488
487
487
489
490
490
489
491
491
490
490
492
492
490
490
491
491
489
490
490
489
488
489
488
488
488
491
490
490
491
493
493
492
493
494
494
494
494
495
495
496
498
499
499
499
502
503
504
503
504
503
501
499
499
498
497
499
500
499
498
501
508
522
541
562
572
565
540
516
504
502
504
504
503
502
502
503
503
502
503
504
505
504
507
508
508
508
509
510
511
512
514
515
516
517
520
521
521
523
525
526
525
526
526
525
524
525
525
523
522
522
521
518
516
515
514
513
513
512
512
510
511
513
512
511
512
512
511
511
513
514
515
515
516
516
516
517
518
518
518
519
520
521
520
521
522
522
521
523
523
522
522
523
522
522
522
523
522
520
521
522
521
520
520
521
521
520
522
523
522
521
522
522
521
521
523
523
522
523
523
523
522
523
523
524
523
525
525
524
523
525
526
526
526
528
527
526
528
529
529
529
528
528
526
525
525
525
524
523
524
524
525
527
538
554
576
596
606
593
563
540
533
532
530
528
526
524
523
524
523
522
521
523
523
523
523
525
525
524
524
526
526
525
526
528
528
528
530
530
530
531
533
536
536
536
538
537
536
535
535
534
532
531
528
525
523
522
520
517
514
515
513
511
510
511
511
509
509
509
510
510
510
511
511
510
510
511
510
509
510
510
510
510
511
512
511
511
513
513
512
511
512
512
511
512
513
512
511
512
512
512
510
511
512
511
509
511
511
511
510
512
511
510
511
512
512
511
512
513
513
511
513
513
513
513
515
515
514
513
514
516
516
516
518
518
518
519
520
520
517
517
516
514
511
511
510
510
508
509
508
508
512
523
541
564
583
584
562
530
511
507
507
503
500
497
495
494
495
495
494
494
495
496
495
496
497
496
496
496
497
497
497
500
501
501
501
503
504
505
505
507
507
507
507
508
506
505
504
503
502
499
498
496
494
492
491
490
488
486
487
485
485
484
486
485
483
483
484
484
484
485
486
486
485
485
486
486
485
486
487
487
486
488
488
487
486
487
487
487
487
488
488
487
489
489
489
489
490
489
488
488
490
490
489
489
490
489
488
489
490
491
490
491
491
491
491
492
492
492
492
495
496
495
494
496
496
496
497
499
500
500
501
501
501
499
498
498
497
496
497
496
495
495
496
496
497
503
515
533
553
566
565
543
515
500
497
499
498
498
497
497
495
496
496
495
496
499
500
499
499
500
500
500
501
503
504
504
506
508
509
509
511
513
513
513
516
517
518
517
519
518
517
516
517
516
514
513
511
508
506
506
505
503
502
503
503
501
500
501
500
499
499
500
500
499
499
499
499
498
501
502
503
503
505
505
505
506
507
509
508
509
510
511
510
511
513
513
513
514
515
514
513
515
516
516
515
516
517
517
517
518
518
518
518
519
520
519
520
521
520
519
520
520
520
520
520
520
519
519
521
521
520
522
524
526
525
526
528
529
529
530
531
530
529
529
526
524
523
523
522
520
520
521
522
525
532
547
569
591
605
600
574
546
535
534
534
531
530
528
526
525
525
523
522
523
524
524
524
526
527
526
525
527
528
528
527
530
532
532
533
535
536
537
538
539
540
539
539
539
540
538
538
537
534
531
530
529
527
524
523
522
520
518
518
517
515
515
515
514
513
514
514
514
513
514
514
515
514
516
516
515
513
514
514
513
513
513
514
513
513
513
513
511
512
513
514
513
514
513
512
511
514
514
512
512
513
513
511
512
513
513
511
512
512
512
510
511
511
510
510
510
510
509
508
509
509
507
506
508
507
507
507
507
506
504
505
505
504
503
503
502
502
502
503
504
503
503
503
505
505
505
506
506
504
502
501
501
500
500
499
497
496
496
497
498
506
522
545
564
571
557
528
503
495
495
495
493
492
492
490
489
490
490
491
491
492
493
494
495
495
495
496
497
497
497
496
498
499
500
500
502
503
505
506
509
509
509
509
510
509
507
506
506
505
502
502
501
499
496
495
493
492
490
492
492
490
489
490
490
489
489
489
489
489
490
491
491
490
492
492
492
490
491
491
491
491
493
493
492
493
494
495
494
494
494
494
493
493
494
494
492
493
495
495
495
497
497
496
495
496
496
496
495
495
494
493
494
495
494
492
493
493
494
495
496
495
495
493
495
495
495
494
495
496
495
496
497
499
497
498
499
500
500
503
503
502
501
501
499
497
496
497
496
495
495
496
495
494
498
505
520
540
559
566
554
528
507
497
497
498
498
496
495
494
494
494
493
494
495
496
497
499
500
499
498
500
501
501
502
504
506
506
507
510
512
513
515
517
518
519
520
520
520
519
521
520
518
516
516
514
512
510
509
507
505
504
504
503
501
501
502
501
500
501
501
500
499
500
500
500
500
501
501
501
501
502
502
502
503
505
505
504
506
506
507
507
508
509
508
507
508
508
508
507
509
510
509
508
508
509
508
510
511
511
509
511
511
511
509
511
512
512
512
512
512
512
513
515
515
515
515
516
517
516
517
517
517
516
517
517
516
515
517
518
518
518
519
519
518
518
519
520
519
521
522
523
522
524
526
528
528
529
529
529
528
528
526
524
524
525
525
524
523
523
523
525
533
546
566
588
602
595
570
542
532
531
529
527
525
523
521
522
522
521
521
522
523
524
523
525
525
525
525
527
528
527
527
529
530
529
530
532
533
534
536
537
538
537
538
538
537
536
537
537
535
533
531
528
525
524
524
521
519
518
518
517
516
516
516
515
514
515
516
514
514
515
515
514
514
515
516
515
515
516
516
515
515
516
516
515
516
516
516
514
516
517
516
515
516
516
517
517
517
517
515
515
515
514
513
514
514
513
510
511
511
510
509
510
510
510
510
512
512
511
511
512
511
510
510
510
509
508
510
510
509
509
511
512
511
510
511
511
511
511
511
511
510
510
510
509
508
509
509
509
508
508
508
509
510
511
511
510
509
508
505
502
500
501
500
499
498
498
498
499
507
521
540
561
576
571
546
517
503
502
502
500
498
496
494
494
493
492
491
492
494
494
493
495
496
496
495
497
497
498
499
500
502
502
505
507
508
507
509
510
510
510
511
512
511
509
509
509
508
506
505
503
501
499
499
498
496
496
496
495
493
494
494
494
493
494
493
493
492
493
493
493
493
494
494
492
492
492
493
492
494
493
494
493
495
495
495
495
496
496
496
497
499
498
497
497
497
497
495
495
495
494
494
495
496
495
495
495
495
494
495
496
496
495
495
496
495
493
493
493
492
492
492
493
493
492
494
494
494
493
493
494
494
494
495
496
495
496
498
500
499
501
501
500
498
498
497
495
494
495
495
494
493
494
496
505
521
544
560
562
547
521
502
494
496
498
498
497
497
498
497
496
498
498
498
499
500
500
500
501
502
503
503
504
506
507
507
510
510
511
512
515
516
516
517
518
518
518
518
518
518
517
517
516
516
513
512
511
511
509
508
508
506
506
506
505
504
503
504
503
502
503
504
503
502
503
504
505
504
506
507
508
508
508
506
505
506
507
508
508
508
510
511
511
512
512
512
512
513
514
515
515
517
517
517
517
518
518
517
517
518
518
517
517
517
517
517
518
519
518
518
519
520
519
518
519
519
519
519
520
520
519
518
518
518
517
519
519
519
517
518
519
520
521
522
522
523
525
528
527
526
526
527
525
524
524
524
524
523
522
522
522
523
531
544
563
585
599
596
573
545
532
531
531
530
528
527
526
527
527
526
525
526
526
526
526
528
529
528
529
531
531
532
533
534
535
535
537
538
539
539
541
542
543
543
545
545
544
544
543
541
539
538
536
534
530
528
527
524
521
520
520
520
518
518
518
517
516
516
516
516
516
516
516
515
516
516
516
514
515
515
514
513
514
514
514
514
514
514
512
512
514
515
515
515
516
515
514
515
515
515
514
515
515
514
511
512
512
511
511
513
513
513
513
514
514
513
514
515
515
514
514
514
514
514
515
515
513
511
512
513
513
513
514
514
513
514
515
515
514
514
515
515
514
516
516
517
515
518
519
520
519
520
519
518
517
515
514
512
512
512
510
509
509
509
514
523
541
564
581
581
562
531
511
506
506
504
501
499
499
498
496
496
495
495
495
497
497
497
497
497
496
494
494
495
496
495
496
497
498
498
499
500
501
500
501
501
501
500
501
501
501
500
500
498
496
495
494
492
490
489
488
487
486
486
486
484
481
480
481
480
480
482
482
482
481
481
482
482
481
482
481
480
481
483
484
483
484
484
484
484
486
487
487
486
487
486
485
485
486
486
485
485
486
486
485
486
487
486
485
486
486
486
486
488
488
487
487
489
489
489
490
490
491
490
491
492
492
490
492
491
492
492
493
493
495
495
497
497
497
497
497
496
494
493
492
492
491
491
492
494
498
509
526
547
560
559
539
511
494
491
492
493
492
492
491
490
492
493
492
491
493
495
495
495
495
496
497
497
499
500
500
501
503
505
505
507
509
510
510
511
512
512
512
514
514
513
512
512
511
510
508
507
506
503
502
501
500
498
498
497
497
496
496
497
497
497
498
498
498
499
501
501
501
501
502
503
502
504
506
506
504
505
505
506
505
506
507
506
507
508
508
507
506
507
507
506
506
506
506
506
508
508
508
507
509
509
509
509
510
511
510
510
511
512
512
511
512
512
512
514
515
515
514
515
515
515
514
516
515
514
514
516
517
517
516
518
519
520
520
521
521
519
518
516
514
513
514
514
514
514
515
517
523
536
557
578
588
582
558
532
518
518
519
517
514
514
513
512
511
512
512
511
511
512
512
513
513
514
514
514
516
517
517
518
519
520
520
520
522
524
525
525
526
526
526
526
527
527
526
526
525
523
521
520
518
515
513
514
514
513
511
512
512
510
509
509
509
508
508
508
509
508
509
510
510
508
509
509
509
509
510
510
510
510
512
514
514
514
516
517
516
517
518
518
518
520
521
520
520
520
520
519
518
520
520
520
520
521
521
521
521
522
522
521
522
523
523
522
523
523
523
522
523
523
522
523
524
524
523
522
523
523
522
523
523
523
522
525
526
527
527
528
529
528
528
529
528
528
526
525
524
521
521
521
520
519
520
522
529
542
565
589
603
596
572
544
530
528
528
524
519
517
517
516
515
516
517
518
517
519
519
520
519
521
521
520
520
521
523
522
524
525
526
527
528
529
530
530
532
533
532
531
530
529
527
526
524
521
518
517
515
512
509
507
507
504
501
500
499
498
497
497
496
494
491
491
490
489
488
489
489
488
487
488
486
485
486
486
486
485
486
487
487
486
487
487
486
486
487
488
488
489
490
489
488
489
489
489
487
487
487
487
486
487
487
487
487
488
488
487
486
487
488
488
487
487
486
484
484
484
484
482
483
483
483
481
482
483
483
483
485
486
488
490
491
491
490
490
490
489
487
488
488
487
484
485
486
487
488
497
510
530
551
562
553
525
500
489
489
488
489
487
486
485
485
485
486
487
489
489
490
490
492
493
493
495
496
498
498
500
502
503
503
505
506
506
506
508
509
510
512
515
517
517
516
517
517
516
514
514
512
508
508
507
505
503
503
503
502
501
501
502
500
500
501
502
501
501
502
503
502
503
504
505
504
505
506
506
506
507
508
507
507
508
508
507
507
508
508
507
507
508
509
509
511
511
511
509
510
511
510
509
510
510
510
510
510
509
508
508
508
508
507
508
509
508
508
510
511
511
512
515
516
515
514
515
516
516
516
517
516
515
516
514
512
511
512
512
512
512
512
513
517
528
546
567
582
582
564
537
519
514
517
516
514
513
512
512
511
511
511
511
511
513
512
511
511
513
514
514
516
519
520
519
520
522
522
522
524
526
526
527
528
529
529
528
529
529
529
528
527
525
522
521
520
518
516
516
514
512
510
511
510
510
508
509
509
509
508
509
508
507
508
508
509
508
509
511
512
511
512
512
512
512
514
514
514
514
515
514
513
513
514
515
514
514
514
514
513
514
514
513
513
514
514
514
514
516
516
516
517
519
519
518
519
520
519
518
518
519
519
519
519
519
519
519
521
521
520
520
520
521
520
520
521
521
520
520
522
523
522
523
525
525
526
528
528
528
527
527
526
524
523
523
523
521
522
522
522
523
531
544
565
587
602
596
571
542
529
528
527
525
523
521
519
518
518
519
518
519
519
520
521
523
523
522
521
522
522
522
522
524
524
525
525
527
528
529
531
532
532
532
532
532
531
530
530
530
528
526
526
524
521
518
517
515
513
513
514
512
510
509
508
507
505
505
505
504
504
505
505
506
506
506
505
504
505
506
505
505
505
505
504
503
504
504
503
502
503
502
501
499
500
500
499
499
499
499
499
499
499
499
498
500
500
500
499
500
499
499
498
499
498
497
498
498
499
499
500
500
499
498
499
499
498
497
498
497
496
494
494
494
494
493
494
494
493
493
495
496
496
496
496
495
494
494
493
492
491
491
490
490
490
492
494
503
518
541
562
569
555
528
505
497
498
499
497
494
494
493
493
493
494
495
495
496
498
499
498
498
498
499
499
501
501
501
501
502
502
502
503
505
506
507
508
509
510
510
510
511
511
510
509
509
508
506
505
503
501
499
498
498
497
497
499
500
500
500
501
500
499
498
498
499
499
500
500
499
499
500
500
501
500
501
502
502
501
501
502
502
503
503
503
501
501
502
502
501
501
501
500
499
500
500
500
500
501
501
500
499
499
499
499
499
500
500
500
501
501
500
499
500
500
501
500
501
500
500
500
502
502
502
503
504
505
505
506
507
508
507
508
506
505
504
505
505
504
504
504
505
507
512
523
540
560
574
572
552
524
509
506
508
507
507
507
506
505
506
507
507
509
511
511
510
510
511
511
512
514
516
517
517
518
519
520
521
523
523
524
524
527
526
525
526
527
526
525
525
525
524
521
520
519
518
516
514
513
511
509
508
507
506
505
506
506
506
507
507
507
506
506
509
509
509
510
510
510
510
511
512
512
512
513
512
510
509
510
510
511
511
510
510
509
509
508
508
507
508
509
509
508
508
508
508
507
508
508
507
508
508
509
508
509
509
508
507
508
508
509
508
508
509
509
508
509
509
509
509
510
509
508
507
508
509
508
509
509
509
509
509
509
510
510
511
512
513
515
516
516
515
515
515
515
512
513
513
513
512
512
512
512
515
525
541
565
585
592
578
549
526
519
520
519
517
514
513
511
513
514
514
514
515
517
517
517
520
521
522
523
523
524
524
526
527
527
527
528
529
529
530
533
534
535
535
537
537
536
536
536
535
532
531
529
527
523
521
520
519
517
517
516
515
514
515
515
514
514
515
515
514
513
514
514
513
514
513
514
514
514
514
514
514
515
515
514
514
514
514
514
513
514
513
513
513
513
512
510
511
511
510
509
510
510
510
509
510
510
510
509
510
510
509
509
510
509
510
511
510
510
509
510
512
512
512
513
513
513
513
514
513
512
512
513
513
512
511
511
512
512
513
513
514
513
514
515
515
515
516
516
515
514
514
513
510
510
510
510
508
508
507
509
515
530
552
574
586
580
554
525
511
510
509
506
503
501
500
499
499
499
500
500
501
501
501
501
503
503
502
501
503
504
504
503
504
505
504
503
504
504
503
504
505
505
504
505
504
503
501
501
500
499
497
496
493
491
489
489
488
487
487
487
486
484
485
485
486
486
486
486
486
486
488
488
488
489
489
488
487
488
488
489
487
488
488
487
487
488
488
488
487
487
486
485
486
487
488
488
488
489
488
487
487
488
489
488
489
490
491
490
491
492
493
493
494
494
494
494
495
496
495
495
496
498
496
497
498
498
497
499
500
500
500
502
502
503
503
504
504
503
502
500
500
499
499
499
498
497
498
497
498
500
509
522
542
561
569
559
533
509
500
499
502
503
502
501
500
500
500
501
501
502
503
503
503
504
504
505
505
506
506
507
508
510
511
511
512
513
514
515
517
518
519
519
520
521
521
519
519
518
517
516
515
513
511
510
508
507
504
503
502
501
500
500
501
502
502
502
502
501
501
503
504
505
506
507
507
506
506
506
506
507
510
511
512
512
513
514
514
512
513
512
511
511
510
510
510
510
510
509
507
507
507
508
507
508
508
508
507
507
506
506
506
507
507
506
507
507
507
506
507
508
509
508
510
510
512
512
513
513
512
514
515
516
516
516
516
515
513
513
514
513
512
512
512
512
512
515
521
534
552
573
584
579
556
529
514
511
513
511
508
506
507
507
507
506
508
509
508
508
510
512
513
513
514
515
515
516
517
517
518
519
519
520
521
522
521
522
522
523
523
522
522
522
521
519
518
517
515
513
512
511
511
509
508
508
507
505
507
507
507
506
508
507
507
506
507
507
506
506
508
509
509
511
511
511
510
510
512
513
513
514
514
515
515
516
517
517
518
519
518
518
519
521
521
521
523
523
524
524
524
524
523
522
524
524
524
524
525
526
525
526
527
527
525
526
524
524
522
523
523
522
521
521
521
520
520
520
520
520
520
521
522
521
521
522
522
523
524
524
524
524
527
528
528
527
527
526
523
521
521
520
518
519
519
518
518
520
525
537
555
580
598
598
577
548
530
526
526
526
523
520
519
518
516
515
515
515
515
515
517
518
518
517
518
519
520
520
522
522
523
524
525
525
525
527
528
527
527
527
526
525
523
524
523
522
520
519
518
515
514
512
511
509
507
507
506
504
504
503
503
501
502
501
501
499
499
498
498
499
500
499
499
500
501
502
502
503
505
504
504
505
505
505
505
505
505
505
505
506
506
505
504
504
504
503
502
501
500
499
500
499
500
499
499
498
497
496
497
498
497
498
498
498
497
497
498
498
497
498
497
497
496
497
497
497
496
497
498
497
497
499
499
499
499
499
500
500
502
503
504
504
505
507
508
507
508
507
506
504
503
501
500
500
499
498
496
495
495
496
503
518
540
561
571
562
534
507
496
496
496
494
492
490
489
487
487
489
490
491
492
493
493
492
494
494
495
495
496
497
498
499
500
501
502
504
505
505
506
507
508
509
508
508
508
508
507
507
505
504
501
500
498
496
494
493
492
490
489
489
488
486
487
488
489
489
489
490
490
491
491
491
490
491
491
491
492
492
493
493
494
495
495
495
494
495
496
497
496
497
497
497
497
499
499
498
497
498
497
496
496
496
496
495
497
498
499
498
498
499
499
500
501
501
499
499
499
499
499
500
500
500
499
499
499
499
499
499
499
499
499
501
502
503
503
506
508
508
509
510
510
507
506
504
503
502
502
502
503
502
502
503
508
518
536
558
574
574
555
526
508
504
506
506
505
504
503
504
504
505
506
506
506
508
509
510
510
512
514
514
515
515
516
516
518
519
520
521
522
524
526
526
529
529
530
530
531
531
530
529
529
528
525
522
520
518
515
514
513
512
510
509
509
509
508
509
509
509
509
510
510
509
509
511
511
511
512
512
512
512
513
514
515
514
516
516
516
516
517
517
517
517
518
519
518
518
518
518
518
518
518
520
521
523
523
524
523
525
525
526
526
527
526
526
526
526
527
527
529
528
527
525
525
524
524
524
525
525
525
525
526
525
524
524
525
525
524
524
525
524
523
525
525
525
526
527
527
526
526
528
530
530
529
529
528
526
523
522
521
519
518
516
515
513
514
515
521
532
552
576
591
589
568
539
523
520
520
518
514
512
511
511
510
510
509
510
510
511
511
512
512
514
514
515
515
516
516
515
516
517
517
516
517
518
519
519
520
520
520
520
521
520
519
519
519
519
517
516
515
512
509
508
505
504
502
502
502
501
500
500
500
501
500
502
501
500
500
501
501
500
500
501
501
500
500
500
500
498
499
500
500
500
501
501
502
502
503
503
503
503
503
503
503
503
503
503
502
503
503
503
502
503
503
502
502
503
504
503
504
505
504
503
503
503
503
503
503
503
502
501
503
503
502
502
501
502
502
502
503
503
503
504
506
506
506
507
509
510
509
510
509
508
506
505
502
502
500
500
499
497
496
497
497
503
516
537
561
573
568
543
515
500
499
499
498
495
494
494
494
493
493
493
494
496
497
499
499
501
502
503
502
505
505
506
506
508
509
510
510
510
511
512
513
513
513
514
514
514
514
513
512
511
509
506
505
504
503
501
499
498
497
496
496
496
495
495
494
493
493
493
493
493
492
492
493
494
494
496
496
497
497
498
498
496
496
497
497
496
497
498
497
497
498
498
499
499
499
498
498
498
498
498
498
497
498
498
497
498
498
499
499
499
499
500
500
501
501
501
500
501
501
500
500
500
500
500
500
501
500
499
500
502
503
502
503
504
506
507
509
510
511
511
511
509
508
507
506
506
505
505
505
505
506
512
525
544
565
577
572
549
522
509
508
509
508
508
507
507
507
507
508
508
509
510
510
511
512
513
514
515
517
518
519
520
522
524
524
526
528
529
531
532
533
534
534
535
535
536
535
536
535
535
532
531
530
527
525
524
523
522
521
520
520
518
518
517
517
517
517
517
516
515
516
516
517
517
519
519
520
520
521
522
522
522
523
523
522
523
523
524
523
523
524
525
525
526
527
527
528
529
528
527
528
528
529
529
531
531
530
528
529
529
529
529
530
530
530
529
530
530
530
530
530
530
529
530
531
531
529
529
529
529
529
531
531
531
531
532
532
533
534
535
535
533
533
532
530
527
526
525
524
523
523
522
521
520
524
534
549
572
591
596
580
550
528
522
521
521
518
515
513
513
514
514
513
514
515
515
516
516
516
516
515
515
516
516
517
518
519
518
520
521
521
521
524
525
526
526
528
528
528
527
527
527
524
522
520
518
515
513
511
510
507
506
505
504
503
503
503
504
503
503
503
502
503
502
503
502
502
502
502
502
502
503
504
503
504
504
505
504
506
506
505
505
505
505
504
505
505
505
504
505
504
503
503
503
503
504
503
504
505
505
505
506
505
504
504
504
505
504
504
504
504
504
504
504
503
502
502
501
501
500
500
500
500
499
500
501
501
503
503
503
503
504
506
507
507
507
507
505
502
501
501
501
500
499
499
499
498
499
504
515
534
558
575
574
553
522
504
500
500
498
496
494
495
494
493
494
495
495
495
496
497
498
498
500
501
501
501
503
505
506
505
506
507
508
508
509
509
509
508
509
509
508
508
509
507
505
503
501
499
496
495
494
492
491
490
490
488
488
487
487
486
487
487
487
487
488
489
489
489
491
492
492
492
492
492
491
491
491
492
491
492
493
494
493
494
494
495
495
496
496
496
497
497
497
497
498
499
499
498
498
499
500
500
500
499
499
498
500
501
502
502
502
502
502
502
503
503
502
503
504
505
505
505
505
505
505
507
507
507
506
505
503
501
500
501
500
500
500
499
498
498
501
507
521
539
560
570
563
539
515
502
500
501
503
502
501
500
501
502
502
502
503
503
504
504
505
506
505
506
507
507
508
510
511
513
514
517
518
519
520
523
523
524
524
526
527
525
525
524
522
521
520
518
517
514
513
512
511
509
509
508
508
507
507
507
507
507
507
507
506
505
506
506
505
506
507
508
508
509
508
507
507
507
507
507
508
509
509
509
509
509
510
509
510
510
511
510
510
510
510
510
510
510
509
510
511
511
511
512
513
513
513
514
514
515
514
514
514
513
513
514
515
515
515
516
516
516
517
517
516
515
517
519
520
518
519
519
520
517
516
516
516
514
513
514
513
514
516
519
529
547
569
587
590
573
545
525
520
521
521
520
519
519
519
518
519
520
520
520
520
521
522
522
523
524
525
524
526
527
529
529
531
532
533
534
536
536
536
536
537
537
536
536
534
534
533
533
531
529
527
526
524
522
520
519
516
515
513
514
514
512
512
512
512
511
512
512
511
511
512
512
512
512
514
514
514
514
515
515
515
515
516
515
515
516
516
517
516
515
514
514
514
515
515
515
514
515
515
514
514
514
515
513
513
513
513
513
513
513
513
511
512
513
514
513
514
513
513
513
513
513
512
512
513
514
513
513
512
512
511
510
510
509
508
509
508
508
507
508
508
508
509
510
512
512
512
514
516
517
518
518
519
517
517
515
514
512
512
511
511
511
510
510
512
521
536
558
581
592
582
554
527
517
515
514
510
508
506
506
505
505
505
505
506
507
507
506
506
506
507
507
508
509
510
510
511
512
513
513
516
517
518
518
519
520
520
520
520
519
518
518
517
516
514
512
510
508
506
505
503
502
501
501
500
498
498
498
498
497
498
499
499
498
498
498
498
498
499
499
500
500
500
500
499
498
498
497
496
496
496
497
496
497
497
498
497
497
496
497
496
496
496
496
496
496
497
497
498
498
498
497
497
497
496
495
496
496
496
495
496
497
496
496
497
498
498
497
497
496
496
496
496
497
496
497
497
497
497
497
497
498
499
501
501
502
504
506
506
506
506
506
505
503
501
500
501
500
499
499
498
497
499
502
511
527
550
570
577
563
533
507
498
498
499
497
494
494
492
493
492
494
495
496
495
497
498
498
497
499
500
500
501
502
502
501
503
504
506
506
507
509
510
511
513
514
513
513
514
514
513
511
509
508
505
504
503
502
500
500
499
498
497
497
497
497
496
496
496
495
495
496
496
497
498
499
500
500
500
500
500
498
499
500
501
500
501
502
502
502
502
503
502
502
503
502
502
502
503
503
503
504
504
504
503
504
503
503
503
505
505
505
505
505
504
504
505
505
506
505
506
506
506
505
506
506
506
506
507
508
508
507
508
509
510
511
512
512
512
514
515
514
514
515
514
511
509
510
510
510
509
509
509
508
509
513
522
537
559
576
579
563
535
515
509
510
511
511
509
507
507
508
508
508
509
509
510
511
513
513
513
515
516
517
517
520
521
523
523
524
524
525
525
526
528
528
529
529
529
528
527
527
525
523
522
520
519
516
515
513
512
510
510
509
509
508
508
507
507
507
506
507
506
506
506
506
506
507
508
509
509
511
511
511
512
514
515
516
516
517
518
518
518
518
518
517
517
518
519
518
518
517
517
516
516
516
518
518
519
520
520
520
520
520
519
519
519
520
519
520
520
522
522
523
523
523
523
524
524
524
523
523
523
523
523
523
523
521
522
521
520
519
519
520
521
520
521
520
520
520
522
522
521
521
522
524
524
524
524
524
522
521
520
519
518
518
518
517
516
516
518
524
537
556
580
595
593
570
540
522
520
520
518
515
514
513
512
510
510
510
510
510
511
513
513
514
515
516
515
517
518
519
520
522
522
523
523
524
524
525
525
526
526
526
526
527
526
525
526
525
523
520
518
516
514
510
509
508
506
504
504
504
503
502
501
501
501
502
502
503
503
502
502
502
501
501
502
502
501
502
502
502
502
502
503
503
504
505
504
503
503
503
504
504
503
503
503
502
502
502
501
502
502
502
502
502
501
500
500
501
502
502
502
502
502
501
500
501
500
500
500
500
499
500
500
501
502
502
502
501
500
500
500
500
500
499
500
499
499
498
499
499
499
499
500
498
498
500
502
503
503
504
503
502
500
500
499
498
497
498
497
497
497
500
507
522
543
564
576
568
542
515
504
503
504
503
502
501
501
500
500
501
503
503
503
503
503
504
505
505
505
506
505
506
507
509
509
510
511
512
512
513
513
514
514
514
514
513
513
512
510
508
506
504
502
499
498
497
496
494
493
491
491
489
490
490
489
489
489
489
488
488
489
489
489
489
490
489
489
489
490
490
490
491
492
493
493
495
495
495
495
495
496
496
496
496
498
498
498
498
499
498
499
498
498
498
499
499
499
499
499
499
499
499
499
499
498
499
500
499
499
500
500
501
500
502
503
503
502
503
504
505
505
504
504
504
504
505
505
504
505
506
507
508
509
510
512
514
515
516
516
515
515
513
512
512
511
511
511
511
511
512
513
519
532
552
571
584
576
552
526
514
512
514
514
511
510
509
509
509
509
509
510
511
513
514
516
516
516
517
519
520
521
522
523
524
525
526
527
528
529
531
532
532
532
533
533
532
530
530
529
527
525
525
524
523
523
522
520
519
518
517
517
516
516
514
514
514
513
512
511
512
513
514
514
515
516
516
518
520
520
521
522
523
522
523
524
525
525
526
525
526
526
526
524
525
525
525
524
524
525
525
526
526
526
525
524
525
526
526
526
526
525
524
525
524
524
524
524
524
523
524
524
524
523
523
523
522
523
523
523
523
522
522
522
523
523
524
524
523
523
524
524
523
523
522
522
522
524
523
523
523
524
524
525
525
525
524
524
523
522
521
520
518
517
516
515
516
515
518
523
536
556
579
594
593
570
540
524
522
521
518
516
513
512
511
510
510
510
510
511
510
510
510
512
512
513
513
514
514
516
516
518
518
519
520
520
522
522
523
523
522
521
521
520
520
517
517
516
515
512
510
509
506
504
502
500
498
497
496
496
495
496
496
496
496
497
496
496
496
497
496
496
497
498
499
500
499
498
499
500
501
501
501
500
501
502
502
502
502
502
502
501
502
501
501
502
501
500
500
501
501
501
500
500
499
498
498
499
499
499
500
501
501
501
502
501
501
501
501
502
502
502
502
502
502
501
502
502
502
502
501
500
499
499
499
498
498
499
500
501
500
502
503
505
504
505
504
506
507
508
508
508
508
507
506
504
504
504
503
501
500
499
500
503
514
530
553
571
577
561
530
507
501
503
503
500
498
497
495
495
495
495
494
495
497
498
498
499
499
500
500
501
502
503
505
506
508
509
510
512
513
513
513
512
512
510
510
510
510
507
506
505
504
501
499
497
495
495
493
491
489
489
490
489
488
488
488
489
489
490
489
489
488
488
488
488
489
489
490
490
489
490
490
489
490
490
491
491
492
492
493
491
493
493
495
495
496
495
494
495
495
496
497
497
496
497
496
497
497
498
497
498
498
498
498
499
499
500
499
499
500
499
498
499
499
499
500
500
500
500
501
502
503
502
504
505
505
505
506
506
507
507
507
508
506
506
504
503
503
504
503
503
503
505
506
511
521
538
559
573
571
551
524
508
504
505
507
506
505
505
506
505
506
506
507
506
507
508
509
509
510
510
511
511
511
513
513
514
515
515
516
519
520
521
523
525
527
527
527
527
527
527
526
525
523
520
518
517
516
515
514
513
511
510
510
509
509
509
509
509
509
509
509
509
509
509
510
511
510
511
512
513
512
514
513
513
513
514
514
515
514
515
517
517
517
517
516
514
514
515
514
514
514
513
513
512
513
513
513
512
513
512
512
513
514
515
514
514
514
514
514
514
515
515
514
515
514
515
515
516
516
516
515
516
517
517
517
517
518
519
519
520
521
520
519
518
517
515
516
515
514
514
514
514
516
521
533
551
573
586
583
561
534
519
516
517
517
516
514
514
513
513
514
515
515
515
516
517
516
516
517
517
518
519
519
518
520
520
521
521
522
522
524
524
526
527
527
526
525
525
524
523
522
520
518
515
512
510
508
508
507
507
506
506
506
505
505
505
505
504
503
504
506
506
508
509
510
510
511
511
513
513
513
513
513
513
514
514
515
515
516
516
516
516
516
517
516
516
516
518
518
519
519
519
519
519
518
519
519
519
519
519
520
520
519
519
519
519
520
519
520
520
520
519
520
519
519
517
517
517
517
517
517
516
516
517
518
519
519
519
519
518
517
518
518
518
517
518
520
521
521
522
523
524
524
525
526
525
525
523
521
520
520
519
518
517
517
519
525
538
559
582
595
589
564
536
523
521
520
518
514
513
512
511
510
511
510
510
510
511
511
512
512
512
513
513
513
514
516
516
516
516
518
518
520
520
521
521
522
522
522
522
522
521
520
519
518
515
512
510
509
507
505
505
504
503
501
500
498
498
498
499
498
498
499
500
500
499
499
500
500
500
500
500
500
499
500
499
499
499
500
499
500
501
502
502
502
503
504
505
505
506
506
506
506
507
506
506
505
507
506
506
505
506
506
506
506
505
506
506
507
507
507
507
508
509
508
508
508
508
509
509
510
509
509
508
507
507
506
506
506
506
506
507
506
506
505
506
507
508
509
509
510
511
511
513
514
514
515
514
513
511
510
509
509
509
510
510
510
509
511
518
533
555
578
590
581
553
524
511
510
510
508
505
503
502
502
502
502
503
503
504
502
503
504
504
503
503
504
504
505
506
508
508
508
508
510
512
514
515
516
516
518
518
517
516
516
515
514
512
510
509
506
504
501
500
498
497
496
495
493
492
491
491
491
492
492
491
491
491
491
491
491
492
492
492
491
491
491
490
490
490
491
491
492
492
492
491
492
493
493
493
494
495
496
496
497
498
499
501
501
501
500
500
499
500
500
500
499
500
500
501
500
501
501
501
501
500
500
499
500
500
500
500
501
500
502
502
503
503
505
505
506
506
506
506
505
505
506
506
506
507
507
507
507
509
509
509
509
509
507
506
503
501
500
499
498
497
497
496
498
503
516
534
556
567
563
539
512
497
495
497
498
496
494
493
492
493
492
493
493
494
495
496
496
497
497
497
498
499
500
503
504
506
505
507
507
509
509
511
512
513
515
515
515
514
514
512
510
508
507
506
505
502
501
500
500
499
498
498
497
496
496
496
495
496
495
495
495
496
495
495
494
495
495
497
497
498
499
500
501
502
502
502
502
503
504
503
502
502
503
503
504
505
506
506
506
505
506
506
506
506
504
503
504
505
505
505
505
506
506
507
507
507
507
507
507
508
509
509
508
508
509
509
509
509
510
511
512
513
514
516
517
518
518
519
519
518
518
517
516
514
515
515
514
514
514
515
518
529
544
566
583
586
569
541
522
518
519
519
518
516
515
515
515
515
516
516
517
517
518
518
519
520
521
521
522
522
523
523
525
525
526
527
528
530
530
530
530
531
531
532
532
532
531
531
529
528
525
524
523
521
520
518
517
515
514
513
513
512
510
510
510
509
509
508
508
508
508
508
509
510
511
512
512
512
513
514
513
514
514
515
516
518
518
519
520
521
521
521
521
521
522
523
522
522
522
521
521
522
522
522
522
522
522
522
523
524
524
523
523
523
522
522
523
523
523
523
522
521
521
522
522
521
520
520
519
520
519
520
520
520
519
519
519
519
520
521
520
521
523
525
525
525
523
522
521
518
517
516
515
515
515
514
514
514
517
527
544
566
586
595
583
555
530
521
519
518
515
512
510
510
509
510
509
509
509
509
510
510
511
511
513
513
513
514
515
516
516
516
518
518
518
519
520
521
521
521
522
522
521
521
521
520
519
517
515
513
511
510
509
509
507
506
505
504
503
503
503
503
503
503
503
503
502
501
501
501
502
502
503
504
504
504
504
503
504
504
503
502
503
503
503
504
504
504
503
504
504
505
504
504
503
502
502
503
503
503
503
504
503
503
503
504
504
505
505
504
504
504
504
504
505
504
505
505
506
505
506
507
508
508
508
508
508
508
509
508
507
507
506
507
506
506
507
509
508
509
509
510
510
511
512
512
512
514
514
514
514
514
514
512
511
510
509
508
509
508
509
509
511
518
531
551
576
591
587
563
534
519
516
517
514
511
509
509
507
507
506
506
506
507
505
505
506
507
507
508
509
510
510
510
512
511
512
512
514
513
514
515
516
516
516
516
515
515
515
514
513
511
509
508
506
504
502
501
498
498
497
495
494
494
494
494
494
493
493
493
494
494
493
493
494
494
493
492
492
493
493
493
493
493
494
494
495
495
496
496
496
496
495
496
496
495
494
494
494
495
494
495
495
494
494
495
496
496
496
496
496
495
496
497
499
499
500
499
499
498
498
499
499
499
500
500
500
500
500
500
501
502
502
501
501
502
502
503
504
505
505
505
505
505
505
504
503
503
504
504
504
504
503
501
501
502
502
501
501
501
500
496
495
494
494
491
492
491
492
492
497
505
521
542
559
564
550
522
499
492
493
494
493
493
492
493
492
493
492
493
493
495
495
496
496
495
496
496
496
497
499
501
503
503
505
506
507
508
510
511
512
512
513
513
513
513
512
512
510
508
507
506
504
502
500
500
497
496
494
494
493
494
494
494
493
493
494
494
493
493
494
495
496
496
496
495
497
498
498
498
499
500
502
502
504
504
505
505
505
505
506
508
508
508
508
509
509
509
509
509
509
509
508
509
508
507
508
508
509
509
508
509
508
508
509
510
511
511
511
511
511
511
513
513
514
514
514
514
515
516
516
517
517
519
520
521
520
521
521
520
518
516
515
515
514
514
514
513
513
513
516
526
543
564
581
584
569
540
522
516
518
518
519
517
516
515
516
515
515
515
515
516
516
517
517
518
518
519
519
520
522
523
523
524
524
525
525
527
528
528
528
529
530
531
531
530
529
528
526
524
523
521
518
516
515
514
513
512
510
508
507
506
506
506
505
506
506
506
506
507
506
507
508
510
509
510
510
510
509
509
509
510
510
511
512
511
511
511
512
511
511
512
513
513
514
515
514
514
515
515
515
516
517
519
520
521
521
522
521
522
522
523
523
523
522
522
522
523
522
524
523
524
524
523
524
524
524
524
524
524
524
524
524
525
526
525
527
527
526
525
525
525
525
524
524
525
526
527
528
528
527
526
525
524
522
522
520
519
518
519
518
518
521
531
548
571
590
597
583
554
530
522
521
519
517
515
513
512
513
511
510
508
509
510
511
511
511
511
512
513
513
515
516
517
516
516
517
519
521
523
522
524
524
525
525
525
525
524
525
525
524
522
520
519
517
514
513
511
511
509
508
507
506
505
504
504
503
503
503
503
503
503
504
504
503
503
503
503
504
505
505
505
505
506
506
506
506
506
506
505
506
506
506
505
506
506
505
505
505
505
505
505
505
504
505
505
506
506
507
507
508
509
509
508
508
509
507
507
506
506
506
506
505
505
505
505
504
505
505
505
504
504
505
505
505
504
504
504
503
501
501
501
502
501
502
501
502
502
503
504
505
505
506
506
504
504
504
502
500
499
498
497
496
497
498
500
507
522
544
567
578
569
543
516
505
504
503
500
497
496
496
495
494
493
494
494
496
497
498
498
499
499
500
500
501
502
502
503
503
504
505
506
506
507
507
508
508
507
506
506
505
504
503
503
501
498
496
492
489
488
487
486
485
483
483
483
482
481
480
480
479
479
479
479
479
480
481
482
482
483
484
484
484
484
483
484
484
486
486
487
487
489
489
490
490
491
491
492
492
493
494
494
495
495
495
494
495
494
494
493
494
494
495
495
496
496
497
497
497
497
497
498
497
498
497
498
498
499
498
499
499
500
498
499
499
500
500
501
502
503
505
506
508
507
508
508
508
507
507
506
504
503
503
503
503
504
505
512
523
542
561
570
562
539
514
503
502
505
505
505
503
503
503
503
502
503
503
505
505
506
506
506
506
507
507
507
507
508
510
511
512
512
514
515
516
517
520
520
522
522
523
522
522
521
520
520
518
516
513
513
511
511
509
509
508
507
507
509
508
507
506
506
506
505
505
505
506
506
507
507
508
508
510
511
511
511
512
511
512
513
514
513
513
513
513
513
512
512
511
512
512
514
513
514
513
515
515
515
516
517
517
517
517
518
518
518
518
517
519
519
519
518
518
518
519
519
519
518
518
518
518
518
518
517
516
516
516
516
516
517
517
518
519
521
523
523
522
523
522
521
520
518
517
517
517
516
515
514
515
516
522
533
550
572
589
589
570
541
524
518
519
518
517
514
514
514
514
514
515
516
517
519
521
522
523
525
526
527
527
529
530
532
532
533
534
536
537
539
540
540
541
542
544
544
543
542
542
540
539
537
535
533
531
528
527
526
524
522
521
520
520
518
517
517
516
516
516
516
516
517
517
517
517
518
519
519
519
519
519
519
519
518
517
517
517
517
517
517
517
516
517
516
516
515
516
516
516
515
516
515
514
515
516
517
516
517
517
516
514
514
513
514
513
514
513
514
513
513
513
514
515
515
515
515
514
514
514
515
515
514
515
514
515
514
515
514
514
513
514
514
515
515
515
515
515
514
514
515
515
516
515
514
512
510
509
509
508
508
508
509
509
511
519
533
555
578
592
584
557
530
518
517
516
513
510
507
507
506
505
505
505
505
505
504
505
506
507
509
510
510
510
511
511
513
514
515
515
517
517
518
519
519
519
519
519
520
519
519
518
516
515
513
510
507
505
503
502
501
500
499
498
497
496
496
496
496
495
495
494
495
494
495
495
495
495
496
496
496
496
496
496
495
495
495
496
497
497
497
497
497
498
498
499
499
499
499
499
499
499
499
498
497
497
498
498
498
498
498
498
497
497
498
497
498
497
498
497
497
497
498
498
499
498
498
498
497
497
497
498
498
499
498
499
499
500
502
503
504
506
506
507
508
510
511
511
511
509
507
504
503
502
502
501
501
499
499
500
502
508
523
543
565
577
570
546
519
505
504
504
502
500
497
497
496
497
496
497
496
498
499
501
501
501
501
501
501
502
503
504
504
505
506
507
507
509
510
510
511
511
512
512
512
512
512
511
511
509
507
504
503
501
498
497
495
493
492
491
489
489
488
488
487
487
487
487
486
486
485
486
486
486
486
486
486
487
488
489
490
490
490
490
491
492
492
493
495
494
494
494
495
494
495
496
496
496
497
497
496
497
497
498
498
498
498
497
497
497
496
497
497
497
498
498
498
498
499
499
499
499
501
501
501
500
500
500
500
501
502
503
503
503
503
504
505
506
507
508
509
510
512
514
514
514
511
511
511
511
511
511
511
510
510
510
512
517
529
547
567
580
575
553
527
511
509
511
512
510
509
509
509
508
509
508
509
510
510
512
512
513
513
514
515
516
516
516
517
517
518
519
519
520
521
522
524
525
526
526
526
526
526
526
526
524
523
521
519
516
515
513
512
510
509
508
507
506
505
505
504
504
503
504
505
505
506
507
508
508
508
509
508
509
509
509
510
511
510
511
511
511
512
513
514
514
514
514
514
513
514
513
514
512
513
512
513
512
513
513
513
514
515
515
515
515
516
516
516
517
517
519
520
521
522
522
522
521
522
523
523
523
523
523
523
523
524
524
524
523
525
525
526
525
526
526
526
527
528
528
529
530
530
530
531
532
532
533
532
531
529
528
526
526
525
525
524
524
523
523
523
526
535
551
574
592
597
583
554
532
524
524
523
520
519
517
517
515
516
515
515
514
515
515
515
516
516
517
518
518
518
518
518
520
521
521
521
522
522
522
523
523
523
523
522
522
522
521
520
520
520
519
518
516
513
511
510
508
508
507
505
504
503
503
503
503
502
502
502
503
503
502
502
503
503
504
503
504
505
506
506
507
506
505
506
506
506
507
507
508
507
508
509
509
509
508
508
507
508
508
509
509
509
509
509
509
509
509
508
508
508
508
508
508
507
508
507
507
506
507
506
507
507
507
507
507
506
506
507
507
507
507
507
507
507
507
507
508
508
507
507
507
507
506
508
508
507
506
507
508
509
508
508
509
509
510
511
511
511
513
513
513
512
513
511
510
509
509
510
510
509
508
510
516
528
547
572
589
590
569
539
521
517
516
515
512
509
508
507
507
506
506
506
507
507
507
507
508
507
509
510
511
512
513
513
514
515
516
516
517
519
520
520
520
520
520
519
518
519
517
516
514
512
509
508
506
504
502
501
499
497
495
494
494
493
493
492
492
492
492
492
492
492
492
490
490
490
491
491
492
491
491
492
492
493
493
494
495
495
495
495
495
495
494
495
494
495
495
495
495
496
496
496
496
496
497
497
496
496
497
497
498
497
497
497
497
496
496
495
496
496
496
497
498
497
497
497
497
498
498
499
498
499
499
499
499
500
500
502
503
503
502
503
503
505
506
506
506
505
504
503
501
500
500
500
500
500
501
500
500
503
511
525
545
565
575
567
540
515
501
501
501
501
499
498
497
497
498
498
496
495
494
493
493
494
494
495
495
495
495
495
497
498
498
497
498
499
499
498
499
499
500
502
503
503
503
502
501
500
499
497
496
495
492
492
491
490
489
489
487
487
487
487
487
487
487
487
487
488
487
487
487
488
488
488
490
490
490
492
493
494
494
495
496
496
497
497
497
497
498
498
498
498
497
498
499
500
500
501
501
502
501
501
501
503
504
505
505
507
507
508
508
509
510
510
511
511
512
512
513
513
513
513
513
513
515
516
517
518
518
519
520
522
522
521
521
520
519
517
517
517
517
517
516
516
516
516
519
528
544
566
585
593
581
554
531
522
523
524
523
521
520
520
521
522
524
524
526
526
527
528
530
531
532
533
532
533
534
536
536
537
537
539
539
540
540
541
543
544
544
544
542
542
541
540
538
536
535
532
531
530
529
528
526
525
526
524
524
522
523
522
522
521
521
520
521
521
520
520
520
521
521
521
521
521
520
521
521
521
521
522
520
520
520
520
518
519
519
519
517
517
517
517
517
517
518
517
517
516
516
515
516
516
515
513
513
514
514
514
514
515
514
515
514
514
514
514
514
515
515
516
515
516
516
516
516
516
515
515
515
516
517
517
519
518
519
520
520
521
521
519
519
517
516
515
515
514
514
513
514
513
515
520
531
549
574
594
595
576
544
525
520
521
518
515
512
511
510
510
508
507
508
509
510
511
511
511
512
512
513
513
514
514
516
517
518
518
519
519
520
521
522
522
522
522
521
521
520
519
517
515
513
512
508
506
504
503
501
499
498
498
496
496
496
497
497
498
498
498
497
496
497
496
496
496
497
497
497
498
498
497
497
497
498
498
499
499
500
500
500
501
501
501
501
501
500
501
501
501
501
500
499
498
499
499
499
499
500
499
499
499
500
500
500
500
501
501
501
501
502
503
504
504
504
503
502
502
502
502
502
503
503
505
504
505
505
508
508
509
509
509
508
506
504
503
503
502
501
500
501
499
500
504
514
530
554
576
585
572
543
517
507
506
506
504
501
500
499
498
497
498
498
499
500
501
502
503
504
506
506
508
508
508
509
510
510
510
511
512
512
512
513
513
513
513
514
515
515
514
513
512
511
509
507
505
502
500
499
497
495
493
492
492
492
492
491
492
491
492
492
491
490
491
491
492
492
493
494
495
495
494
494
494
495
495
495
495
496
495
495
495
494
494
495
495
495
495
496
496
496
497
497
498
498
498
497
497
497
498
497
497
496
496
496
496
496
496
497
497
497
497
497
497
497
497
497
497
498
498
497
497
498
499
500
500
500
499
497
495
495
494
494
493
493
493
493
493
498
511
530
553
566
563
541
514
498
496
499
501
500
500
499
500
499
499
499
500
501
502
505
505
507
507
509
509
512
514
518
521
522
524
526
528
529
529
529
531
533
534
534
535
534
534
534
535
534
533
530
528
525
525
523
522
520
520
519
518
518
517
516
516
516
516
516
515
515
516
516
516
518
518
519
519
520
520
520
521
520
521
521
522
521
522
521
522
522
523
523
523
523
523
523
523
523
523
523
523
522
522
522
522
522
521
521
520
520
519
520
519
520
519
518
518
518
518
518
518
518
518
518
519
519
520
519
520
521
522
521
522
523
525
525
526
526
525
524
521
520
519
519
518
516
515
516
516
518
523
536
554
579
596
597
574
543
524
521
520
518
515
512
511
510
510
508
508
508
509
509
509
509
510
510
509
509
509
510
512
513
513
513
514
515
516
516
516
518
519
521
520
520
519
519
518
518
516
514
513
510
508
507
505
503
502
502
501
500
499
499
499
498
499
499
500
499
500
501
501
501
501
501
502
503
503
503
503
503
503
504
504
505
504
504
504
504
503
504
504
504
503
503
502
502
502
501
501
500
500
499
499
499
500
500
501
500
502
502
502
501
502
502
503
503
504
504
504
505
505
505
505
505
503
503
503
502
501
501
502
504
505
506
505
506
507
508
509
510
509
509
508
507
505
504
504
503
502
501
