335
370
304
296
296
302
303
301
303
305
305
305
308
312
315
315
316
315
310
303
299
300
298
298
296
301
300
298
298
301
300
298
297
300
299
298
297
300
301
302
302
302
302
300
297
300
300
302
296
304
361
323
288
293
295
298
298
302
304
304
306
307
311
315
314
315
318
312
305
300
300
300
297
296
300
300
298
298
301
301
299
298
301
301
301
298
302
304
304
302
301
303
303
301
301
303
298
316
358
306
295
293
297
300
302
301
305
307
308
309
311
319
321
320
317
313
307
302
298
302
301
302
299
302
302
301
298
301
301
299
299
300
301
302
300
304
306
305
302
302
302
301
300
303
302
300
342
355
299
297
295
300
302
303
302
304
308
309
311
312
317
319
317
313
310
304
301
298
299
301
299
299
300
301
300
298
300
301
299
297
300
300
300
297
298
300
301
299
303
302
302
300
302
302
302
299
299
300
355
347
296
296
296
297
298
301
303
302
303
307
308
311
313
317
317
313
306
302
299
299
296
298
299
299
296
298
300
299
297
299
299
298
296
299
299
300
297
299
300
300
297
301
304
301
299
298
300
301
298
297
299
295
334
355
294
294
291
294
299
300
300
299
303
307
306
309
314
316
315
312
309
304
299
295
297
298
298
297
298
299
299
297
298
300
298
298
298
299
300
297
300
301
302
300
301
306
304
302
302
304
304
302
301
303
299
332
354
298
296
294
297
301
303
303
303
304
308
309
311
316
318
318
314
312
304
302
297
299
301
300
300
300
301
301
298
299
302
303
300
300
302
302
301
300
303
303
302
302
304
304
301
300
304
303
302
302
305
298
323
368
310
299
296
297
301
303
303
302
306
309
310
312
316
319
319
316
312
307
304
299
300
301
300
299
300
302
300
299
298
300
300
298
297
299
299
298
297
300
300
299
297
302
302
300
296
299
301
299
299
302
296
309
369
321
295
293
294
299
301
301
299
304
305
307
307
312
314
317
312
310
304
300
295
295
298
297
296
297
298
301
296
299
298
299
297
297
299
300
298
298
301
300
301
300
301
304
306
302
304
303
304
301
303
303
303
298
342
360
297
293
293
299
301
300
304
306
307
306
309
314
317
317
317
317
310
303
298
298
297
296
296
296
298
296
297
298
297
296
294
298
297
297
296
297
298
299
298
301
302
301
298
300
301
299
297
300
297
300
350
328
290
292
292
296
298
297
299
302
304
304
305
308
311
316
314
310
306
300
297
294
296
296
293
294
297
296
297
294
296
296
298
294
298
297
298
296
297
299
301
296
298
299
300
298
300
300
299
292
325
363
300
292
291
298
298
298
299
302
305
302
305
309
312
314
312
313
308
302
296
297
296
294
295
296
297
298
295
298
297
299
295
297
297
297
295
298
299
300
298
303
301
300
297
300
300
299
299
298
298
356
344
290
293
293
293
297
300
301
300
302
305
307
310
313
315
316
312
304
301
298
295
294
297
297
297
295
299
298
298
295
298
297
299
296
298
298
299
296
298
303
300
296
298
298
300
298
297
298
298
348
339
290
294
292
296
298
300
301
302
304
307
308
310
315
315
314
310
306
302
297
293
297
298
295
295
297
296
296
294
297
296
296
293
295
296
296
295
297
296
297
294
295
296
296
295
296
297
346
332
286
291
292
295
296
297
300
299
300
303
306
308
309
313
313
309
302
298
294
295
292
295
296
295
293
297
298
297
294
297
297
297
295
296
297
298
297
298
300
299
298
296
297
298
296
296
299
293
320
360
301
293
291
295
298
297
296
297
303
303
305
306
312
314
315
312
308
301
299
294
298
297
297
294
297
298
297
294
297
297
298
296
297
298
298
295
296
297
298
296
300
300
298
296
297
297
298
297
296
292
332
361
295
293
292
293
293
296
297
299
297
303
306
308
310
314
316
314
304
302
298
297
294
297
297
297
295
297
297
297
296
296
298
297
295
295
298
298
297
296
299
300
297
298
303
301
298
298
298
300
297
297
296
296
351
331
290
290
289
290
295
296
299
297
301
302
306
305
313
314
313
309
303
301
296
293
294
294
295
294
295
297
297
295
296
297
296
295
293
298
296
295
293
298
299
297
296
298
297
296
294
298
298
295
291
307
356
308
287
290
293
296
294
298
299
300
299
303
306
310
312
313
313
308
300
296
295
295
290
294
295
295
293
295
296
297
295
293
297
295
295
294
297
296
297
295
299
300
298
296
298
300
300
298
300
298
298
349
336
291
293
293
297
299
299
297
301
303
304
303
308
313
314
312
307
306
300
295
293
295
296
293
294
295
297
295
296
297
296
295
293
295
296
294
295
299
297
297
295
298
299
299
297
298
296
297
295
297
298
292
307
366
314
292
287
292
294
296
295
298
300
300
300
303
309
311
311
310
308
300
295
294
293
293
293
293
294
293
294
293
296
295
294
292
294
294
295
292
296
295
295
294
298
298
300
297
297
298
298
296
297
299
298
293
349
347
291
289
290
296
296
297
299
302
303
303
305
310
313
314
313
314
307
300
295
297
297
294
292
295
296
294
295
296
295
294
294
296
293
296
291
295
297
297
295
300
297
298
295
295
295
297
295
294
297
336
339
286
290
290
292
292
297
298
298
299
303
306
307
309
315
313
311
303
301
297
294
293
294
294
295
293
294
296
294
292
295
294
293
291
294
294
296
295
297
296
296
291
295
298
298
294
291
304
357
315
288
290
293
294
294
299
299
299
300
304
306
309
310
313
313
306
299
297
296
294
292
294
295
296
293
295
295
296
292
294
294
296
292
294
296
296
294
296
300
297
296
294
296
298
294
295
296
292
341
347
289
287
288
291
294
294
295
295
299
302
303
305
310
311
311
307
303
298
294
292
292
294
292
294
294
296
294
293
295
295
296
293
293
295
294
294
295
298
298
294
296
295
297
295
295
297
293
295
358
332
289
286
288
294
294
296
294
298
300
300
303
308
310
312
309
307
302
296
293
294
295
294
292
294
296
295
294
295
296
295
295
296
296
297
295
296
298
300
298
297
298
297
295
295
298
296
293
333
344
288
290
288
295
296
298
297
301
302
302
304
309
312
311
310
311
305
299
294
295
295
293
294
295
296
295
292
297
296
296
294
296
295
295
295
295
298
299
296
293
296
296
295
294
295
290
301
354
311
288
287
291
294
295
294
296
298
298
300
302
307
310
310
308
305
300
295
290
292
291
292
291
292
293
294
291
291
293
294
290
290
293
293
291
293
294
294
296
295
296
294
294
293
294
297
295
289
308
362
309
289
289
292
293
293
296
297
298
299
303
306
307
310
312
310
307
299
295
294
294
291
294
294
294
294
293
296
297
294
294
296
297
294
294
295
296
294
294
296
297
299
296
298
298
296
295
296
298
296
290
334
356
293
290
289
292
294
293
296
297
296
299
303
306
309
309
311
310
306
297
294
293
292
290
292
293
293
292
292
295
293
295
292
294
295
292
293
293
295
294
293
297
298
295
295
296
295
295
295
298
297
293
303
358
312
289
288
293
296
296
296
298
301
301
302
305
312
312
310
310
306
301
293
292
293
293
290
291
293
293
292
293
293
293
292
292
293
292
294
290
294
295
294
294
296
295
294
292
294
293
294
292
291
294
353
324
286
286
288
290
292
293
296
294
297
300
301
302
307
309
310
304
299
294
292
291
289
292
291
291
290
293
291
291
290
293
293
293
291
294
294
292
293
296
295
297
293
294
295
294
291
296
295
292
293
359
331
288
285
287
291
293
292
295
298
297
299
303
305
308
308
309
306
301
295
292
292
292
291
290
292
293
292
291
294
293
293
292
293
294
294
292
295
294
295
293
299
296
296
292
295
296
296
293
296
290
325
358
296
290
288
289
293
294
297
300
302
305
304
307
309
313
313
311
304
302
297
294
291
294
293
294
292
295
294
292
290
292
293
292
291
292
293
294
293
298
297
295
293
294
295
295
292
295
291
329
343
285
288
287
289
291
294
295
295
296
300
303
303
306
310
309
306
300
296
293
290
289
291
291
289
289
291
292
292
290
292
291
290
289
293
294
296
293
295
292
292
291
293
293
294
287
323
350
291
286
286
289
294
291
293
296
296
297
299
306
308
307
307
308
303
297
290
293
291
290
289
292
293
292
290
292
291
292
289
292
292
292
291
292
293
296
291
293
291
290
289
292
291
291
285
331
347
288
283
284
289
290
290
290
292
295
295
298
302
305
305
306
305
299
293
287
289
288
289
289
289
290
291
288
291
291
290
288
291
292
291
291
292
294
295
292
292
292
293
289
292
292
290
292
356
329
287
284
287
291
293
291
293
296
298
299
301
307
309
310
308
305
300
294
291
293
292
291
289
292
292
290
289
292
290
283
272
270
272
272
274
278
281
284
282
285
287
288
287
290
291
291
288
339
334
285
285
286
293
295
293
297
300
301
301
303
309
311
312
310
309
304
297
293
295
294
294
291
294
293
294
292
293
294
292
291
293
293
292
289
293
295
296
293
291
291
293
291
293
294
289
298
350
305
284
283
286
290
291
290
290
294
296
296
298
304
305
305
304
301
295
289
286
287
287
288
285
287
288
288
285
287
287
288
287
288
287
288
287
290
291
293
288
290
291
290
289
291
291
290
287
340
339
285
286
288
290
292
291
293
294
297
297
299
305
308
309
308
308
303
297
293
294
294
294
292
294
295
295
293
294
293
295
292
293
293
294
292
292
293
294
292
295
295
293
289
289
291
291
290
291
287
317
356
293
284
284
287
288
291
292
293
291
295
297
300
299
305
305
304
296
292
288
285
281
285
285
288
286
288
289
290
289
290
291
291
289
291
292
291
291
291
294
295
296
295
295
294
294
292
295
296
295
288
316
359
300
286
289
292
293
292
298
297
299
300
304
306
308
310
311
311
308
298
296
293
293
290
291
292
293
291
292
293
293
293
292
293
293
292
292
293
294
292
293
299
295
295
293
296
295
295
292
295
293
334
337
285
288
287
290
293
295
295
295
299
300
303
303
307
309
309
305
302
295
292
289
289
291
289
288
292
292
292
292
291
294
293
292
291
295
294
294
293
298
297
295
292
295
295
295
295
296
291
307
356
306
289
288
291
294
296
298
297
301
302
305
305
310
314
314
310
307
302
297
293
292
295
293
293
292
296
297
294
293
295
294
293
293
296
295
294
294
295
296
298
293
296
295
295
291
296
295
294
290
326
356
294
285
286
290
291
291
295
296
296
296
300
305
308
308
309
308
302
296
291
290
291
288
290
291
291
291
290
293
292
293
291
294
293
291
291
293
293
295
292
297
294
295
291
292
294
293
292
293
290
316
360
299
289
286
288
291
293
294
292
294
298
300
301
307
309
310
307
302
297
294
289
288
288
290
289
288
290
292
291
290
291
291
291
288
292
290
290
290
292
295
293
290
290
291
291
288
289
290
286
319
339
284
282
281
286
289
290
288
292
294
295
296
298
302
303
303
300
297
289
284
283
284
282
283
282
284
285
285
282
286
283
284
282
285
285
284
282
288
289
288
284
286
287
288
284
288
283
299
342
294
279
280
282
284
286
290
289
291
294
297
297
302
306
306
304
297
294
290
288
287
288
288
288
287
289
291
290
289
291
292
290
289
291
292
292
290
293
296
294
291
292
292
294
292
292
295
290
321
351
291
288
285
291
293
295
294
295
297
299
300
303
308
309
308
304
304
298
293
291
292
292
293
292
294
293
292
292
292
293
292
290
292
292
293
292
294
294
295
296
293
294
293
292
292
294
295
290
294
357
333
286
286
288
291
290
290
295
296
297
297
302
305
308
306
310
306
300
293
292
290
291
289
292
290
293
290
293
292
291
290
292
293
294
290
292
293
294
291
293
295
296
294
293
294
295
294
291
296
295
291
315
365
304
292
287
292
294
296
293
296
300
299
300
305
308
311
310
311
306
300
294
293
291
293
289
290
293
292
291
291
294
293
292
293
293
291
293
290
292
293
292
293
295
293
289
288
293
292
294
290
288
318
346
288
286
286
290
289
293
294
297
294
298
301
303
305
309
310
308
300
296
292
291
287
290
291
291
289
290
292
293
290
289
291
292
291
291
292
293
293
293
297
295
294
292
295
293
292
292
289
304
351
303
287
285
288
290
293
294
295
294
296
300
301
303
306
308
309
301
296
293
291
288
288
292
291
288
289
291
292
290
290
291
291
289
289
292
292
289
290
292
296
294
291
292
294
291
290
292
293
289
335
348
287
285
283
288
290
291
290
294
296
296
295
301
305
307
305
306
299
294
289
287
289
289
288
289
288
291
289
290
291
288
289
289
291
290
290
289
294
294
295
290
292
293
290
290
293
294
290
290
355
334
284
284
286
291
292
291
291
295
296
297
300
303
307
305
306
304
298
290
285
289
288
288
287
290
291
289
288
291
291
290
291
293
294
293
291
296
298
296
293
294
296
294
291
295
294
290
315
351
292
286
283
289
291
294
292
294
296
299
298
301
306
307
305
304
301
296
290
288
290
290
289
289
291
291
290
288
291
292
290
288
291
293
293
292
294
292
293
289
290
293
293
288
295
349
316
282
284
288
291
289
292
294
296
294
297
300
304
306
306
308
304
297
291
291
290
290
288
290
291
291
291
291
292
291
290
294
294
295
291
294
295
297
294
295
294
294
291
292
293
292
285
306
357
302
285
285
288
291
289
291
295
295
295
297
301
305
305
306
307
302
296
291
291
290
289
289
291
292
290
288
290
290
290
287
289
291
290
289
291
293
294
292
292
292
291
290
291
291
292
285
293
359
320
284
282
288
290
290
292
294
295
296
297
303
305
306
307
309
305
299
292
292
291
290
289
291
292
291
290
292
292
291
288
292
291
292
289
292
294
293
293
293
294
293
291
292
293
294
290
288
336
345
286
291
295
298
300
300
301
305
303
305
308
311
312
312
314
310
304
297
294
295
294
291
292
293
294
291
292
293
294
292
291
295
292
289
293
293
297
291
292
293
293
291
292
293
293
288
329
338
283
285
283
289
290
290
291
294
296
297
297
302
304
307
304
304
299
292
288
288
288
288
286
289
289
290
285
288
290
289
288
289
291
289
287
289
294
292
288
288
290
291
287
289
291
290
335
335
283
286
284
288
290
292
292
293
295
298
301
300
306
307
307
303
299
294
291
288
289
290
289
286
288
289
290
289
290
290
291
288
288
289
291
290
293
293
292
289
290
292
291
291
291
289
303
360
309
286
285
288
287
291
292
292
293
296
299
301
301
306
308
306
299
295
291
290
286
288
288
289
287
288
289
290
287
290
289
290
287
288
289
290
288
291
295
293
290
289
291
292
290
288
290
286
334
346
286
285
283
285
288
291
290
290
293
295
298
298
303
307
305
303
298
293
291
286
290
289
289
288
289
290
289
287
287
288
291
288
287
289
291
289
287
291
292
292
291
292
290
291
288
290
292
291
283
305
359
302
282
283
287
289
288
291
293
293
294
298
301
304
303
305
307
301
292
289
287
287
284
285
286
287
284
286
287
287
286
285
287
287
286
284
288
287
287
288
290
290
288
284
289
290
288
286
285
308
347
289
283
281
286
285
288
290
291
289
294
297
298
299
304
306
304
297
290
289
287
284
285
286
287
286
286
289
288
286
286
289
289
288
287
289
289
288
289
290
288
288
286
289
290
290
289
287
331
341
281
284
283
288
287
289
292
293
293
295
298
303
302
305
306
305
295
292
291
290
288
287
290
290
290
289
290
291
290
289
292
292
291
288
292
292
291
291
293
293
291
289
292
291
292
289
286
299
361
311
285
283
288
287
290
290
293
291
293
298
300
302
306
307
306
301
293
290
289
285
288
288
289
287
286
288
289
289
291
294
294
293
290
292
292
291
292
293
295
294
291
291
293
292
290
292
292
286
325
351
286
285
281
286
288
290
289
290
293
295
296
300
304
306
304
301
297
292
285
286
288
286
285
285
287
287
287
285
288
288
288
285
288
287
288
287
289
290
290
285
288
288
287
285
288
285
291
343
313
278
280
281
282
287
289
288
290
294
295
296
299
304
304
303
298
296
290
284
285
285
285
284
283
286
286
286
285
288
286
288
284
288
288
290
288
290
289
288
286
288
290
288
287
283
311
348
286
283
282
285
285
288
290
292
290
293
296
300
302
302
306
304
295
288
289
288
285
283
286
288
287
286
288
288
288
285
289
287
288
286
288
288
289
290
291
291
290
287
289
290
289
290
287
292
354
320
283
281
283
286
287
289
291
290
292
294
298
299
301
305
305
301
293
290
288
285
284
287
287
288
285
288
288
286
286
288
288
288
285
288
288
289
287
291
292
292
286
288
292
291
288
289
285
309
357
299
285
284
285
285
289
292
290
292
295
296
299
300
306
307
303
299
294
291
287
286
288
289
289
286
291
289
288
286
288
288
288
286
287
288
289
287
289
292
291
289
288
289
290
287
288
290
286
325
339
282
283
280
283
287
290
290
290
294
294
298
298
303
306
305
300
297
292
289
284
287
287
285
284
287
288
288
286
288
288
287
286
287
289
289
289
289
292
289
286
288
290
289
289
284
301
349
299
280
283
288
288
289
292
293
293
293
298
301
303
305
307
307
301
293
291
290
288
286
289
290
290
288
290
290
292
287
289
291
290
287
290
290
291
289
292
292
291
288
288
289
290
288
285
295
357
314
282
282
285
286
287
291
292
291
291
295
300
300
301
305
304
298
291
289
287
286
283
287
286
286
284
288
288
288
284
286
287
288
285
285
289
287
288
291
290
290
286
287
289
288
288
286
285
334
343
281
282
281
284
283
287
291
290
290
294
295
299
300
303
304
302
294
290
287
287
283
285
286
287
283
286
288
288
286
286
288
289
285
288
288
289
287
289
291
291
287
288
289
289
288
287
286
294
354
312
282
283
282
286
287
290
291
290
295
298
301
302
307
307
307
300
296
291
289
285
287
289
288
286
288
288
289
286
287
288
288
285
286
288
288
286
291
290
291
288
286
289
288
287
288
284
305
346
292
282
280
284
283
288
288
291
290
293
295
298
300
304
306
303
296
294
289
286
283
286
286
287
286
285
288
289
285
287
288
288
285
287
290
290
287
288
289
290
288
286
289
289
288
288
286
314
349
286
284
282
286
285
289
291
290
291
295
298
298
299
305
305
304
295
293
289
288
285
286
287
288
284
285
288
288
287
287
288
289
286
286
289
290
288
289
293
290
289
289
291
289
287
286
289
285
330
345
285
284
281
285
288
288
288
288
291
293
296
297
302
305
304
300
296
291
288
284
284
286
287
284
284
288
287
283
286
286
286
284
284
287
287
285
285
288
289
285
286
287
287
286
284
288
285
280
304
353
292
280
275
282
285
285
285
289
290
291
290
295
300
301
298
299
295
289
282
281
280
283
280
281
282
283
280
281
282
284
281
281
284
284
283
284
285
288
286
282
283
284
284
282
285
286
281
318
334
276
279
276
284
285
286
287
288
289
293
290
298
301
303
299
300
296
290
284
284
285
285
284
284
288
287
285
286
287
287
285
285
286
287
286
286
289
292
288
287
287
287
289
287
288
289
288
339
323
279
282
281
286
288
290
288
291
294
295
294
300
302
305
302
300
295
289
285
284
285
286
284
285
286
287
286
286
288
288
286
285
288
288
287
286
288
289
288
285
288
287
286
285
288
288
284
324
346
285
282
280
285
288
289
288
291
293
295
293
301
303
306
304
302
299
293
286
287
287
288
287
288
289
291
288
289
291
291
290
290
292
292
291
294
297
299
297
294
295
296
294
293
296
297
291
302
364
313
289
283
288
292
292
292
293
295
298
297
300
305
307
305
306
303
296
288
287
288
288
288
285
288
288
285
288
289
289
287
285
288
288
286
286
292
291
290
288
288
289
288
284
288
290
285
291
351
311
279
278
282
286
288
288
290
293
293
294
297
300
305
301
303
301
294
288
285
286
288
285
284
288
288
285
287
288
288
288
286
289
288
288
286
288
291
289
285
288
288
289
286
289
287
289
338
326
280
281
281
286
287
289
288
291
293
295
296
300
305
307
304
301
298
293
287
285
288
288
287
286
289
288
288
287
288
288
288
287
289
289
288
287
289
293
291
287
289
288
288
285
289
290
285
309
355
293
283
279
284
287
288
287
288
292
294
293
297
303
305
303
302
298
293
286
284
286
286
285
285
287
287
286
285
288
288
288
286
287
287
287
285
288
289
291
288
290
288
289
285
289
289
290
281
300
361
307
281
281
286
286
287
288
291
294
291
295
300
303
303
306
306
303
293
287
288
288
286
286
288
288
287
286
288
287
289
286
289
288
288
285
289
289
289
288
290
289
288
284
288
290
290
280
295
352
306
277
279
283
287
286
288
291
292
293
295
300
302
304
304
306
302
294
288
288
287
286
283
288
288
285
285
288
287
287
284
288
288
289
286
288
293
290
285
288
289
289
286
288
289
285
324
338
282
282
281
285
287
289
288
291
293
296
295
300
304
306
303
300
298
290
289
283
285
286
285
285
285
288
288
285
288
288
289
286
288
288
288
287
289
292
290
287
288
289
289
286
289
288
286
335
340
283
283
281
286
288
290
288
289
293
294
297
299
303
305
304
301
297
292
289
285
287
288
288
285
288
288
288
285
288
288
290
285
288
288
289
288
288
293
290
289
286
288
288
287
288
290
284
295
359
311
284
279
283
287
290
288
290
293
295
293
298
303
306
304
303
303
295
289
286
288
288
287
284
287
288
287
286
288
288
288
284
288
288
290
286
289
291
292
289
288
290
289
287
288
289
290
281
320
346
285
281
280
286
290
288
289
292
294
295
296
301
304
305
304
304
299
293
285
286
288
286
283
287
287
287
285
286
287
288
286
288
289
289
287
288
291
293
288
288
290
291
287
290
290
290
285
331
334
280
282
282
287
290
290
290
294
294
294
296
302
306
306
304
303
297
291
287
286
287
288
286
288
287
289
286
288
288
289
286
288
288
290
288
288
294
292
288
288
290
289
288
288
290
284
309
353
293
284
281
284
288
290
289
290
293
294
296
298
303
304
305
302
299
294
289
286
286
288
287
285
287
288
290
288
288
288
287
283
287
288
290
288
289
293
290
288
288
289
291
289
289
289
286
330
346
286
285
282
286
288
291
291
290
294
295
298
299
305
306
306
302
299
294
289
286
288
290
288
288
289
289
290
287
289
289
290
287
289
289
291
289
290
294
292
289
291
290
290
289
289
291
288
325
345
285
284
281
285
287
291
290
289
294
296
298
300
305
308
307
303
299
293
290
287
287
288
289
286
289
289
288
287
289
288
290
288
289
291
292
290
291
292
290
288
288
291
291
289
286
290
341
322
277
283
285
287
288
290
292
293
293
296
299
302
302
304
305
301
293
291
288
286
284
287
287
288
285
289
289
288
287
289
288
290
288
289
292
293
289
288
290
289
288
288
290
286
291
346
317
281
280
283
289
289
289
289
294
295
297
297
303
307
307
304
302
296
290
286
286
287
289
286
288
288
289
286
290
290
290
286
288
289
288
289
289
294
290
290
288
290
291
289
288
290
287
329
345
284
285
283
285
290
291
291
290
294
295
297
297
304
306
306
300
296
292
287
285
286
288
288
285
286
289
288
285
288
288
289
286
288
291
290
289
290
292
290
288
286
289
291
288
289
285
299
359
304
284
283
284
286
288
290
290
289
294
294
299
302
304
306
305
297
293
291
287
283
285
286
287
284
285
287
288
285
286
287
287
285
284
288
287
287
287
289
288
284
285
285
288
285
284
286
343
317
272
279
281
284
282
287
288
289
288
292
295
298
298
302
301
297
288
285
283
284
279
283
282
284
281
281
284
282
281
281
285
284
282
281
284
286
285
285
283
284
281
281
284
283
280
280
340
316
275
274
278
282
283
282
286
288
289
290
294
299
301
302
302
299
292
285
285
284
284
279
282
286
283
281
283
284
285
282
281
285
285
283
283
286
285
288
285
286
287
285
284
287
288
285
283
340
338
280
279
282
285
286
283
289
292
291
293
296
300
302
302
304
300
295
289
288
288
287
285
286
288
289
285
287
287
289
285
286
289
290
286
288
289
291
290
292
291
292
288
289
290
290
287
289
286
340
345
283
283
285
288
286
288
290
292
291
295
298
302
302
305
306
303
294
290
288
288
285
285
286
289
288
286
289
289
288
288
288
290
288
288
290
291
290
289
294
292
291
288
291
290
290
288
289
291
347
324
282
285
286
287
290
292
294
294
298
299
300
302
306
308
307
301
296
293
289
287
288
289
288
287
288
291
291
288
288
290
289
288
287
290
291
289
289
291
292
289
288
289
290
288
287
289
288
338
329
280
282
284
284
289
290
292
290
295
296
300
300
305
307
306
301
297
292
289
285
287
286
287
286
286
288
288
285
286
288
287
286
286
288
286
289
286
291
291
288
286
288
288
287
288
288
286
318
349
288
283
280
283
288
287
291
288
291
294
296
296
300
303
305
302
297
290
289
284
285
286
286
285
284
286
289
284
284
286
286
285
284
288
289
288
284
292
293
289
286
289
289
290
288
289
284
320
354
289
283
281
283
286
289
288
286
291
293
296
295
303
303
304
301
296
292
289
285
284
287
288
286
284
289
288
285
287
288
289
286
284
288
289
288
288
293
290
290
286
289
289
291
287
286
296
356
306
283
281
285
285
288
291
292
304
308
312
317
317
321
324
324
318
311
310
307
305
305
308
308
306
307
310
311
308
308
310
309
309
309
309
314
310
309
309
310
310
308
312
310
312
364
347
302
306
306
310
314
315
313
317
319
322
323
327
331
332
329
327
321
317
311
311
313
313
313
313
313
314
311
312
313
313
313
311
313
312
317
315
315
315
312
311
314
315
315
307
321
378
337
304
306
312
313
312
315
318
320
319
323
327
330
330
333
333
329
322
317
316
317
315
314
317
317
315
316
317
317
314
314
317
315
314
316
318
318
317
314
315
316
317
314
315
317
314
317
384
348
312
307
313
313
317
315
318
320
322
323
326
332
334
333
334
333
326
320
319
320
320
319
320
323
323
320
320
322
324
323
320
322
324
322
323
325
328
326
321
325
325
323
321
323
324
319
363
387
323
318
314
321
322
323
322
326
328
330
330
334
337
339
338
336
331
327
320
320
322
322
320
321
323
324
321
322
323
324
323
322
325
325
324
324
324
331
326
325
324
324
324
325
326
326
320
337
393
337
319
314
321
324
324
323
327
330
331
329
337
339
342
338
339
335
330
321
322
322
321
320
321
321
323
322
323
324
323
322
321
323
324
322
321
323
326
325
320
324
323
322
321
324
322
323
370
359
314
317
314
321
323
325
322
326
328
331
331
336
338
340
337
336
330
326
319
320
320
321
318
320
321
321
321
321
321
321
321
320
322
324
321
322
325
322
321
318
322
321
322
320
317
336
385
329
314
314
316
317
320
325
324
323
326
329
330
332
337
339
337
329
324
320
321
317
318
320
320
318
318
320
320
317
318
318
319
320
317
320
322
321
320
322
321
320
317
320
320
319
315
320
380
362
313
312
315
316
315
320
320
322
321
325
328
332
332
334
335
334
324
321
318
320
315
318
318
320
316
317
318
319
318
317
319
318
318
317
320
320
321
320
320
320
320
317
320
320
320
313
325
391
349
312
313
317
318
316
321
322
323
323
327
329
333
333
335
335
332
321
320
318
318
313
316
317
318
316
316
319
315
316
316
317
317
316
315
318
320
318
320
320
321
318
317
319
320
320
318
315
340
388
323
313
311
315
314
321
321
322
321
326
328
332
331
335
337
337
329
324
321
319
316
315
319
318
314
317
318
316
316
316
318
317
315
316
318
320
320
317
319
317
317
316
318
319
317
311
348
370
312
308
310
316
317
317
320
322
322
322
327
330
333
333
334
332
328
319
317
317
318
314
316
317
320
316
317
319
318
316
316
319
320
318
319
322
324
320
320
321
323
319
320
320
321
316
357
371
316
315
313
319
320
320
320
323
324
326
326
331
336
339
334
332
329
323
316
318
318
317
316
318
319
320
318
318
319
318
318
317
318
319
319
318
322
322
320
318
321
322
322
320
323
320
324
389
356
317
316
317
319
326
323
322
327
326
328
329
334
338
340
335
334
328
326
319
321
321
322
317
319
320
323
320
322
322
322
319
320
321
322
322
322
325
326
322
321
322
324
322
319
324
320
323
384
364
318
314
315
320
322
324
321
326
328
331
330
335
338
339
336
336
331
322
321
318
320
321
319
320
322
322
319
320
323
322
319
320
320
322
320
320
323
324
322
321
321
322
320
319
320
320
319
322
387
351
314
313
317
321
321
321
325
326
329
326
333
336
339
338
339
334
328
321
322
319
320
317
319
322
321
321
320
322
323
320
320
321
322
321
321
324
324
325
323
324
322
322
321
322
324
325
317
346
383
321
314
315
320
320
320
324
327
328
328
332
334
338
336
341
338
334
326
323
322
320
320
320
322
322
319
320
320
322
319
319
321
321
320
318
321
321
320
324
323
324
321
321
321
323
321
319
318
337
390
331
318
315
317
320
321
323
323
325
327
330
332
334
340
340
338
331
327
321
323
318
319
319
320
318
320
322
322
320
321
321
322
321
320
321
322
320
320
324
326
323
320
322
322
321
318
324
323
316
362
383
318
315
312
320
320
320
318
324
325
327
326
331
335
336
335
335
330
324
317
317
320
318
315
316
317
317
315
315
318
318
314
316
316
317
315
315
319
319
320
320
321
320
316
317
319
319
320
312
347
383
318
311
313
317
317
317
320
322
325
322
328
332
334
336
335
335
329
320
318
317
317
314
315
318
319
315
317
319
317
316
317
317
318
318
317
320
319
320
321
321
320
318
316
321
322
320
314
330
383
337
312
313
318
319
317
325
323
323
324
329
331
335
337
338
337
333
326
320
321
319
317
319
320
320
318
320
321
321
320
318
321
321
320
321
320
322
319
323
325
325
320
319
321
321
320
320
318
324
386
350
316
314
315
315
319
320
321
322
324
327
329
332
335
337
336
330
326
321
319
313
319
318
319
316
318
317
321
317
320
320
320
317
318
319
319
317
319
321
325
320
320
319
321
319
320
322
321
316
349
388
324
315
310
316
317
318
316
322
323
324
325
330
335
335
334
335
330
324
316
319
317
317
313
317
320
318
316
320
317
319
317
316
318
317
316
316
319
321
320
320
322
320
317
319
319
320
319
312
326
389
343
312
313
316
318
317
321
323
324
324
327
331
335
334
339
337
334
324
321
318
317
316
316
317
318
315
317
319
320
315
318
318
318
316
318
322
321
318
317
320
319
317
318
319
318
319
372
355
310
312
312
319
319
319
318
323
326
326
328
336
338
338
336
334
326
323
317
317
318
318
317
317
319
318
317
319
320
319
318
318
320
320
318
318
323
325
319
321
321
320
319
320
321
321
316
361
378
318
315
313
319
321
320
320
324
325
327
327
330
335
335
334
335
329
324
314
318
316
318
314
317
317
317
317
318
318
320
315
319
319
320
316
319
321
322
320
318
320
320
318
318
320
318
317
379
366
315
312
312
317
317
318
318
322
324
324
326
332
334
334
332
332
326
320
316
317
315
315
315
316
320
318
316
318
319
319
317
318
319
317
317
317
320
321
320
320
321
320
316
318
321
319
319
313
342
386
322
312
312
317
317
317
321
321
322
324
328
332
334
334
336
334
328
320
319
316
315
313
315
315
317
314
315
318
317
314
318
317
318
315
317
319
318
317
320
320
319
317
318
320
318
319
318
315
336
379
325
313
312
315
318
318
320
323
321
326
329
329
331
338
335
336
326
325
321
318
314
320
319
318
317
319
318
321
319
320
321
320
315
321
319
319
318
322
320
323
321
321
321
323
318
321
321
322
314
330
388
338
313
310
315
317
319
317
322
322
324
323
330
333
334
335
336
332
324
318
318
318
317
316
317
318
317
316
316
318
317
316
318
318
317
314
317
318
319
318
318
320
319
320
318
320
320
317
317
320
321
316
315
375
370
312
311
313
317
315
318
319
323
322
323
327
331
333
333
337
333
324
316
318
315
314
313
315
315
316
314
315
316
317
312
315
316
316
314
316
316
316
314
315
317
318
317
318
320
318
316
316
316
318
317
310
327
384
332
306
310
311
313
315
319
320
319
320
325
328
331
332
336
335
328
320
319
315
314
312
313
314
313
313
315
315
314
312
313
314
315
313
314
313
314
313
313
317
318
317
315
318
316
314
315
319
318
312
337
373
317
308
305
314
316
314
315
320
321
320
324
327
332
333
332
332
327
320
314
314
316
315
311
313
314
316
312
314
316
315
313
315
317
317
313
316
317
317
316
321
320
317
317
317
317
319
317
318
314
341
379
319
313
313
315
316
317
321
320
320
325
326
329
331
336
337
334
326
324
320
317
314
317
316
316
315
316
317
317
314
316
317
317
314
316
318
318
313
317
317
319
316
318
318
319
317
317
318
320
313
318
384
353
311
308
313
316
317
315
317
320
321
320
325
331
331
331
334
329
323
318
316
315
314
313
315
314
315
312
316
317
317
311
315
316
316
313
315
315
317
316
315
319
317
314
316
316
315
314
315
313
316
372
358
307
309
307
310
313
315
315
315
320
322
324
324
331
332
331
325
322
316
314
309
312
313
313
311
313
313
312
309
314
314
313
311
312
314
314
313
316
316
314
312
312
315
314
313
311
320
375
339
304
308
310
310
312
317
316
317
317
322
326
327
330
332
331
327
320
316
315
313
311
311
314
314
312
315
315
316
314
316
317
318
314
316
317
317
315
320
319
318
313
316
317
317
315
316
313
334
379
322
310
307
310
313
315
317
315
319
320
323
324
326
332
331
330
323
319
314
311
310
310
312
310
307
312
312
310
310
313
313
313
310
312
313
315
312
313
315
315
310
312
313
315
312
313
312
313
372
357
307
307
306
311
312
315
312
314
318
321
322
324
329
330
327
327
320
316
312
310
312
312
312
309
313
313
313
310
310
314
311
311
313
314
313
313
316
316
317
315
315
316
317
313
316
314
317
308
356
374
309
307
308
313
315
313
314
319
318
320
321
325
329
330
329
329
324
317
312
312
312
312
310
311
313
312
309
312
313
312
310
313
314
313
312
315
315
316
314
315
315
313
314
316
317
317
311
321
377
338
305
309
313
315
313
317
318
320
320
322
327
329
331
332
331
329
321
314
314
314
312
312
313
314
315
310
315
315
314
313
314
313
314
313
316
315
317
317
317
318
317
314
317
315
318
314
312
356
364
305
310
309
315
313
315
319
320
320
322
327
331
330
332
335
330
324
319
316
315
313
313
315
313
313
313
317
315
315
312
315
315
315
312
314
313
315
313
315
320
317
315
315
315
316
312
315
317
311
346
379
317
311
308
312
316
316
315
317
320
324
324
326
330
333
330
330
325
322
315
311
313
312
313
311
314
316
315
312
314
314
314
314
315
315
316
314
316
315
317
315
316
318
317
313
316
316
316
314
316
311
328
386
332
309
308
309
311
314
314
315
314
318
322
323
326
331
331
328
325
319
313
311
308
312
311
311
308
313
312
313
311
312
312
312
311
313
312
313
310
314
314
315
317
315
315
315
313
314
315
316
313
311
355
364
304
309
308
313
312
314
318
319
321
321
328
329
331
333
333
332
326
317
315
315
310
313
314
313
315
312
315
316
314
312
314
314
314
312
315
314
316
317
316
316
315
312
314
315
317
313
309
343
374
312
308
307
313
315
315
317
318
320
320
324
328
328
329
333
333
325
318
315
314
312
311
314
315
313
313
314
314
315
312
315
316
314
312
313
316
314
312
314
314
315
315
316
316
316
313
314
315
316
312
312
371
361
308
307
311
315
314
314
318
318
317
320
324
328
329
330
333
329
323
317
313
315
311
310
313
313
314
311
312
314
313
312
312
314
312
311
313
316
315
316
316
316
315
313
315
316
315
313
308
340
382
316
308
307
311
310
312
316
314
316
315
320
325
328
328
332
329
323
316
313
312
309
311
311
313
311
308
312
312
312
311
312
311
313
311
314
312
314
313
316
319
316
312
313
315
315
313
314
313
316
369
348
305
309
306
311
314
314
316
319
320
323
325
327
332
333
333
326
324
318
313
309
312
310
312
311
314
313
313
311
313
314
314
312
314
314
315
313
313
313
314
311
313
313
315
313
310
357
358
303
306
308
312
313
314
316
319
319
321
324
329
330
332
333
331
323
316
314
315
314
311
312
314
314
311
314
313
313
311
313
313
313
312
315
315
317
314
315
314
314
312
317
317
314
311
356
369
311
307
309
314
314
312
315
318
320
319
323
327
329
327
328
329
322
315
311
312
313
310
309
313
312
312
309
315
313
313
311
313
312
314
311
314
313
317
315
316
315
315
314
314
314
314
308
317
384
346
307
308
310
313
312
313
318
318
320
320
325
329
330
330
331
328
321
316
314
313
310
309
311
312
312
310
313
314
313
309
312
314
311
312
314
314
312
312
320
318
316
314
315
313
315
313
315
310
348
374
312
310
309
311
312
314
317
316
320
322
325
326
331
335
334
330
322
319
315
309
309
312
311
310
310
314
313
314
312
313
312
313
310
313
312
314
310
314
314
316
315
314
316
314
313
313
316
314
313
362
355
306
308
309
313
313
315
316
320
322
321
323
327
333
331
331
330
324
318
313
316
313
314
313
314
315
315
313
315
315
314
313
316
316
316
314
317
317
317
316
320
319
318
317
315
316
317
314
312
321
381
337
309
309
311
312
314
316
316
315
320
323
326
327
330
334
333
327
320
317
314
313
311
314
315
314
313
315
315
315
313
315
316
313
313
312
315
314
312
313
315
316
311
319
319
317
313
315
316
315
313
314
310
331
385
326
308
306
309
312
314
316
315
314
319
321
324
325
331
332
329
323
319
314
311
309
309
311
310
310
312
312
313
309
313
311
311
309
312
312
315
311
313
313
314
311
314
317
317
314
313
312
313
314
312
313
306
328
379
324
307
304
308
311
313
313
314
317
320
320
323
327
332
330
329
326
319
314
309
309
312
311
309
313
311
313
309
313
314
311
312
314
312
313
311
312
314
313
314
315
315
313
313
313
314
314
312
307
329
375
319
304
305
310
312
312
315
315
317
318
323
326
326
328
332
329
325
317
313
313
310
309
312
312
312
310
313
314
315
310
314
313
312
313
315
315
316
313
316
315
315
313
314
314
316
314
312
314
369
355
305
311
309
315
312
315
317
315
316
320
323
325
326
329
332
327
319
316
314
312
311
312
313
313
310
314
312
313
312
313
314
315
312
313
314
313
308
310
314
312
310
309
312
313
310
310
310
313
376
351
307
306
308
311
312
313
315
313
316
320
322
323
329
329
329
325
321
314
313
309
311
312
311
310
314
313
313
310
312
312
312
310
313
314
314
312
313
318
316
313
314
315
315
311
312
314
307
331
380
321
306
303
307
312
313
311
313
317
319
320
322
326
329
329
327
324
317
314
309
311
310
309
309
312
311
311
310
311
312
313
311
312
312
311
312
315
316
317
313
313
314
314
312
314
312
315
369
346
305
308
308
312
314
315
314
315
320
323
324
327
331
332
332
326
322
316
311
312
312
312
312
309
313
314
314
313
313
312
314
312
313
313
314
311
313
319
317
314
313
316
315
313
312
315
311
332
376
320
309
304
311
314
315
314
314
317
319
321
322
328
331
330
327
325
318
314
311
311
311
311
309
313
315
314
312
313
315
313
310
315
313
313
313
313
314
316
313
317
318
317
313
314
316
312
314
314
309
329
385
328
310
306
310
311
314
316
313
318
318
322
322
328
330
332
330
325
320
316
312
311
310
312
312
311
311
314
313
311
313
313
312
312
312
313
314
310
313
313
316
313
313
315
319
314
316
315
316
311
314
314
315
308
346
376
312
307
303
310
313
312
315
317
318
318
319
326
328
330
330
329
324
317
312
310
310
311
309
311
310
311
310
309
312
311
309
309
311
311
309
310
311
312
310
312
312
315
314
311
314
313
313
311
315
313
309
341
370
311
307
305
312
314
314
314
318
318
318
321
325
330
331
331
332
325
319
313
312
311
311
309
312
313
314
312
316
314
315
313
315
315
315
311
314
315
315
312
314
315
320
316
315
316
316
315
314
315
315
312
369
359
307
306
306
312
312
312
312
315
318
318
320
326
328
330
328
330
322
316
311
311
311
310
308
312
312
311
309
312
314
312
309
312
312
312
312
312
311
313
313
312
317
316
314
314
313
313
314
313
315
310
343
381
318
310
305
309
312
314
314
313
316
320
322
322
326
329
330
327
322
317
312
309
310
309
309
306
308
311
308
308
309
308
312
310
310
311
312
309
312
313
315
312
311
312
312
310
310
311
311
307
326
375
320
303
302
307
309
312
312
316
317
318
319
323
329
331
330
331
326
319
313
312
312
311
310
312
311
313
311
312
313
313
310
311
315
314
313
314
318
317
315
313
314
318
315
315
317
310
328
374
325
307
310
311
315
317
316
317
321
323
325
327
332
334
335
331
331
324
318
314
314
316
314
313
315
315
316
313
314
315
315
311
316
315
315
314
315
318
318
316
312
316
315
314
316
316
310
325
382
334
310
305
309
314
314
315
314
319
320
322
323
327
330
333
331
328
323
316
313
312
313
314
310
314
313
314
311
314
314
313
313
312
313
314
313
314
314
318
316
313
314
313
312
313
315
311
311
370
361
308
306
306
311
311
312
312
316
317
320
320
326
328
332
327
330
323
316
311
311
312
312
312
312
312
313
309
312
312
313
310
311
310
313
312
312
314
318
311
312
314
313
312
311
313
313
310
358
361
304
304
304
311
313
313
313
317
317
321
320
326
329
332
328
329
324
316
312
311
312
310
310
312
314
312
311
312
315
312
311
313
314
313
313
314
317
314
311
311
312
314
311
311
310
320
374
327
306
307
308
311
313
315
316
317
319
321
324
324
331
332
331
324
321
316
313
311
311
314
311
312
312
312
314
312
313
314
314
312
312
314
314
315
316
315
314
312
312
314
314
312
311
315
376
349
305
306
311
311
311
313
319
315
315
320
322
325
326
330
330
326
318
317
313
313
309
311
313
313
310
314
313
313
311
313
310
313
311
311
314
313
312
315
314
313
311
311
313
313
310
307
321
386
331
306
305
308
309
310
313
313
313
315
318
322
324
324
329
327
324
316
313
311
309
308
309
311
309
305
309
309
311
307
309
309
309
307
310
311
312
313
311
310
310
309
309
311
312
310
305
362
360
302
304
304
308
309
310
314
315
315
317
321
324
328
325
329
326
320
313
314
311
309
309
311
311
312
308
310
312
310
309
308
311
312
310
312
316
315
310
311
311
313
310
313
314
310
349
360
306
308
305
310
314
314
314
317
319
320
321
324
329
332
329
328
323
317
313
309
312
312
311
311
313
314
313
310
312
311
313
310
312
312
313
313
313
315
315
311
312
313
313
311
311
310
315
374
343
305
307
307
309
310
314
314
314
316
319
320
322
327
327
328
323
320
315
312
310
311
312
312
311
313
312
314
310
312
311
311
309
313
314
313
310
313
316
316
313
315
312
314
312
313
314
307
328
385
325
309
306
308
315
314
313
312
318
319
320
321
326
328
327
327
324
317
312
308
309
311
310
308
311
310
308
308
311
311
309
309
310
310
311
308
311
310
314
310
311
311
311
307
311
311
312
302
329
377
317
302
303
308
310
309
311
313
316
316
318
324
326
327
327
328
323
316
311
310
310
309
307
310
309
311
309
313
310
311
310
312
312
315
312
315
315
314
311
311
313
312
310
313
311
318
371
337
305
306
306
312
313
315
314
316
317
321
323
325
330
330
330
324
320
315
312
310
312
312
312
312
313
313
312
311
313
312
311
310
311
312
313
315
313
315
312
309
311
312
312
310
308
337
374
311
306
306
311
309
311
313
315
315
317
322
324
326
328
330
328
322
315
313
313
309
308
311
310
311
310
312
313
310
312
310
313
311
310
310
314
314
313
314
313
312
311
313
312
315
312
307
344
379
312
305
306
310
309
311
314
314
312
316
319
323
325
325
328
327
320
315
313
310
308
306
309
308
307
310
310
309
309
307
310
310
309
307
313
314
313
311
311
310
312
307
310
313
310
306
362
362
305
304
305
309
312
310
311
315
316
317
320
326
327
328
329
325
320
312
308
309
307
306
309
310
309
309
310
310
310
310
309
310
310
310
310
315
313
312
309
311
311
312
309
312
309
337
366
308
304
304
307
310
311
313
313
317
318
322
321
325
329
328
325
322
317
311
310
309
313
313
311
310
313
314
312
312
312
314
311
310
311
315
313
315
316
314
314
312
315
314
314
311
310
332
374
317
309
307
313
311
313
315
317
316
321
323
325
325
330
330
329
322
316
313
312
309
309
312
311
310
309
312
312
310
311
311
311
310
309
312
312
314
313
312
312
312
310
313
312
313
306
319
384
333
304
303
308
310
309
312
313
315
313
317
320
324
324
327
327
323
313
311
311
309
308
309
309
310
308
309
312
309
310
308
310
310
308
309
310
312
312
312
313
311
310
309
312
312
312
303
329
382
321
304
302
307
310
307
312
313
314
315
317
320
325
326
327
327
321
313
310
308
309
306
307
309
310
308
308
308
308
305
307
308
308
308
307
310
313
312
309
312
310
310
309
310
312
306
315
373
333
301
302
306
310
311
310
314
313
318
316
320
324
328
326
328
324
315
311
310
312
310
308
308
312
311
309
309
312
310
309
310
311
311
312
314
313
310
309
310
311
312
311
308
315
370
341
301
304
308
309
311
315
316
318
315
319
322
327
327
330
330
326
317
314
311
311
308
309
312
312
308
312
311
311
310
310
312
311
309
310
311
311
315
311
314
312
311
310
312
312
311
307
347
374
309
305
307
310
311
310
310
314
314
314
319
322
324
324
328
326
321
314
312
311
312
308
310
312
312
309
311
311
313
308
310
314
312
309
311
313
315
313
313
312
310
312
309
312
313
305
318
386
331
307
301
306
309
309
309
313
311
314
314
320
322
326
324
327
322
316
309
309
308
307
307
308
307
309
307
308
311
310
307
309
309
309
306
309
310
313
310
308
309
309
308
309
312
307
307
362
349
300
303
301
308
309
310
310
314
316
317
317
324
324
327
323
324
319
313
307
308
308
309
307
309
310
310
308
311
309
311
308
310
310
312
310
314
315
313
309
310
312
311
308
311
307
328
371
314
304
304
307
308
310
312
312
313
318
319
323
325
329
330
328
322
317
314
311
308
312
312
313
310
314
314
312
311
314
312
312
309
312
313
315
314
313
315
313
312
312
313
313
310
309
357
365
305
304
307
308
311
310
313
314
314
314
320
323
324
324
326
324
317
310
311
309
307
307
307
309
308
307
310
309
308
307
307
310
309
307
309
310
313
307
310
310
310
309
310
311
311
306
352
372
309
304
304
308
311
309
312
314
315
315
315
324
324
326
324
327
320
314
310
311
310
307
307
309
310
309
308
308
310
308
307
309
308
309
307
309
311
312
310
309
310
312
309
311
311
308
307
370
348
301
301
301
306
308
308
309
311
316
316
318
323
326
325
323
324
318
309
305
309
308
307
307
309
308
309
308
308
308
309
305
309
310
310
308
312
312
308
307
310
312
311
309
309
309
346
358
301
302
305
307
307
311
309
313
313
317
318
323
324
328
327
323
317
315
312
309
306
308
310
309
308
310
313
310
309
310
311
312
308
312
313
315
313
313
313
312
311
312
312
314
307
326
376
323
306
306
312
311
312
313
316
317
316
318
323
326
327
328
328
324
314
311
311
310
308
307
309
310
311
310
312
311
310
308
311
310
311
307
311
312
313
310
310
310
310
309
313
311
309
307
363
362
305
303
305
309
309
309
311
312
312
313
315
320
321
321
320
321
314
307
305
307
307
306
304
307
308
306
304
308
308
306
307
307
307
307
307
310
310
312
310
308
310
308
309
308
309
308
302
328
382
315
301
299
305
307
304
309
309
312
312
316
320
324
323
325
323
318
311
307
306
305
304
301
307
305
306
304
306
304
305
304
305
306
307
306
308
311
313
310
309
310
308
309
309
311
310
306
359
351
302
302
304
311
312
311
313
316
316
318
319
324
326
326
326
323
319
311
308
309
308
308
307
310
310
308
309
310
308
308
306
309
309
308
306
309
312
311
308
308
310
311
307
311
312
307
317
370
326
304
300
307
310
311
310
310
313
315
314
320
324
326
325
322
321
312
309
307
309
307
306
307
306
308
308
307
309
308
308
308
308
308
309
305
310
309
310
312
311
310
310
309
309
310
312
309
306
354
362
302
305
305
308
306
306
310
312
312
315
318
322
318
325
325
323
316
311
307
307
306
305
306
306
305
303
307
308
305
306
307
307
306
306
308
308
307
306
308
311
311
310
307
310
308
307
310
309
305
336
377
313
305
300
306
308
307
308
312
314
314
314
318
323
324
323
321
318
309
308
304
306
305
303
306
307
308
307
305
306
307
308
303
308
308
308
305
309
309
310
308
310
311
311
308
308
308
310
307
309
303
318
378
326
303
300
302
306
309
310
308
311
314
316
317
322
324
325
321
319
314
308
305
304
306
305
306
304
307
305
308
305
307
307
305
306
306
307
308
306
312
307
308
304
308
307
306
306
308
306
352
353
298
302
302
304
306
308
309
310
312
314
315
319
322
325
325
321
315
312
308
305
305
305
306
303
303
306
306
306
304
307
307
308
305
309
307
310
307
310
307
307
305
306
308
307
302
328
371
312
300
300
305
306
307
309
312
313
313
316
320
323
325
324
327
320
312
309
310
308
306
307
308
308
305
307
311
309
306
308
308
307
309
308
312
310
309
305
310
308
308
308
311
304
351
366
305
305
302
305
306
310
310
307
313
312
317
320
322
325
325
320
317
310
309
306
307
307
308
306
306
308
308
307
306
306
308
308
307
310
313
311
307
310
308
307
308
310
309
303
318
380
319
301
297
305
306
306
305
309
311
312
313
316
321
324
320
323
319
313
307
304
306
305
304
306
306
306
305
304
306
307
305
306
308
308
310
305
311
306
306
305
305
307
305
303
339
364
302
299
300
305
305
308
309
311
312
313
316
319
323
322
324
323
315
308
306
307
305
303
306
308
308
306
307
309
307
306
308
309
308
310
309
309
309
308
307
309
308
308
302
317
373
321
299
302
306
308
307
311
312
312
314
317
322
323
324
327
325
320
313
311
311
308
308
309
308
308
309
311
310
309
307
307
308
310
308
309
312
310
308
308
308
309
306
307
307
303
336
369
308
302
300
304
305
307
307
309
312
313
314
316
324
323
322
319
315
310
307
303
306
305
305
304
307
306
307
305
307
307
306
304
305
308
307
306
308
312
309
308
306
308
308
305
307
308
304
325
378
317
304
297
302
307
306
306
306
312
312
314
315
322
322
322
321
318
311
308
305
306
306
307
305
306
308
307
303
305
306
306
304
305
306
305
305
304
308
306
304
308
306
307
304
304
307
307
307
304
305
360
352
295
299
301
304
303
307
307
310
310
314
318
321
322
324
325
322
313
307
306
302
299
306
304
304
303
305
307
306
304
305
304
304
304
304
305
307
304
306
307
310
307
307
308
307
306
305
309
308
303
332
366
306
301
301
306
308
308
309
309
313
315
317
321
324
325
323
322
317
311
307
307
308
306
305
307
307
310
306
308
308
308
305
306
306
307
305
306
306
307
305
308
310
310
307
306
308
309
306
307
305
317
370
323
303
301
305
304
311
308
312
311
313
316
320
320
326
325
324
316
314
308
305
304
305
306
306
304
305
304
306
304
305
306
304
304
305
306
306
305
304
308
306
307
307
310
310
307
304
306
307
307
305
304
308
368
347
301
302
302
304
306
308
309
308
313
316
316
316
321
321
322
320
314
309
305
302
305
306
304
304
305
307
304
305
306
306
307
304
304
309
307
303
305
306
306
306
306
310
309
308
306
308
308
306
306
309
304
314
376
330
301
297
301
306
307
306
306
310
310
314
313
316
321
322
320
317
311
307
302
302
301
302
301
303
302
304
302
302
303
303
303
302
305
305
304
303
307
306
305
307
308
307
306
304
306
307
308
307
303
314
370
321
300
300
304
303
307
309
310
307
311
316
318
319
323
325
323
318
311
310
306
303
304
304
304
304
304
307
307
305
305
306
309
306
306
307
308
308
307
312
309
308
307
308
307
308
306
309
308
359
345
299
303
302
306
309
308
312
310
313
315
319
319
324
327
325
318
318
309
306
305
305
305
306
304
305
307
306
305
307
307
307
304
304
308
306
306
305
309
310
308
305
308
308
305
306
307
304
307
366
343
301
300
300
304
306
307
306
309
310
312
314
317
322
323
320
319
312
307
304
303
305
304
303
305
305
305
305
305
306
305
302
306
306
306
305
304
307
309
307
305
305
307
305
305
309
306
301
312
381
330
301
298
303
304
305
305
306
310
312
310
316
318
320
320
321
316
311
305
304
303
304
303
302
304
304
302
302
304
304
302
302
303
303
301
301
305
304
305
303
305
305
302
300
305
303
302
297
318
373
315
295
296
297
302
302
304
305
306
307
312
314
318
317
321
320
315
306
303
302
300
301
301
302
303
300
303
305
303
302
302
303
302
304
303
304
306
306
304
305
305
304
304
305
305
305
299
343
358
301
299
300
304
306
306
308
310
312
312
314
320
323
322
324
321
317
308
305
304
305
303
305
305
308
306
306
308
307
307
305
307
307
304
305
307
308
308
306
308
304
306
303
308
306
305
299
320
371
318
298
298
304
305
306
308
309
309
309
313
318
320
320
323
323
315
309
307
304
303
300
305
306
303
303
302
304
301
305
303
304
304
304
301
305
306
306
304
307
307
305
303
306
304
304
303
305
301
310
371
332
298
297
299
303
303
305
304
308
310
311
311
317
323
322
319
315
313
307
302
304
304
304
302
304
303
303
301
303
304
303
303
303
304
307
302
304
305
305
305
306
310
308
306
305
305
307
306
303
308
301
346
367
302
301
299
301
303
306
306
305
308
312
312
316
317
321
322
317
312
308
303
300
300
302
302
301
301
304
304
303
300
303
301
301
301
302
303
301
302
305
305
308
305
305
306
304
300
304
304
303
298
346
352
294
294
294
300
301
302
305
307
309
308
312
317
319
321
321
322
315
306
303
303
304
303
301
305
303
303
302
304
303
303
302
304
304
304
303
304
304
307
303
304
304
303
303
304
306
304
302
345
351
296
297
298
303
304
303
305
306
310
309
311
316
316
317
320
319
310
305
302
303
301
300
301
304
304
303
303
305
303
305
303
304
303
304
303
305
305
306
304
306
305
305
302
305
306
306
299
351
358
299
298
301
304
303
305
294
296
298
299
303
308
309
312
312
312
306
299
298
298
295
297
298
299
301
299
300
305
302
302
300
304
303
301
302
304
304
305
306
306
304
306
304
307
306
306
300
312
378
332
300
298
302
305
305
306
307
310
309
313
316
320
320
322
324
318
311
307
306
305
302
303
306
306
304
303
304
305
302
302
303
305
302
302
303
303
305
306
304
306
302
303
305
303
304
301
301
339
359
296
298
297
301
299
303
306
305
306
311
312
317
317
321
322
318
310
306
304
301
300
300
304
302
300
301
303
301
302
301
303
302
302
302
304
303
304
303
304
304
304
302
303
305
303
297
318
364
310
297
298
300
304
304
306
307
309
309
312
315
320
319
321
320
317
309
305
305
304
302
303
304
304
303
303
307
305
304
304
306
303
294
293
297
297
298
298
301
299
297
297
299
299
298
294
306
365
320
292
293
299
300
299
304
305
305
308
310
313
315
317
320
318
315
307
304
304
302
300
301
304
302
302
302
303
303
302
302
304
306
303
302
304
304
304
304
305
310
307
305
307
306
307
304
306
306
302
353
360
301
300
299
302
303
304
306
307
310
311
310
318
321
321
319
320
314
308
304
304
305
304
303
304
303
304
304
304
305
303
303
302
302
304
303
301
303
304
304
302
308
306
304
302
304
304
304
301
304
297
343
357
298
297
294
299
302
304
304
304
307
308
314
313
318
321
321
317
313
306
304
298
301
300
300
300
299
302
303
302
300
304
303
301
301
303
300
300
300
303
302
306
303
305
304
302
301
302
304
301
301
351
345
295
297
299
301
304
304
304
307
309
309
314
318
319
319
320
316
312
304
303
302
304
301
301
303
304
304
303
306
304
302
302
304
304
304
303
305
305
305
306
308
307
304
303
307
304
304
303
300
325
368
308
298
297
301
299
304
305
305
305
308
310
313
314
320
320
318
312
307
305
300
302
300
302
301
301
299
305
302
303
302
302
303
301
302
302
303
301
301
303
306
305
302
305
304
304
304
307
309
302
323
379
318
300
296
304
305
306
306
308
309
310
309
314
318
321
318
321
316
308
305
301
302
301
300
301
302
302
302
300
304
302
299
300
303
304
302
300
303
304
303
303
308
304
304
301
305
303
303
302
299
306
369
333
294
296
299
299
301
305
304
306
310
310
314
315
319
320
321
315
309
305
301
299
299
299
301
300
300
301
300
301
299
302
302
302
300
305
303
303
302
305
306
304
301
304
303
304
301
304
299
302
359
331
293
295
297
301
305
304
304
306
310
311
312
315
320
322
320
317
310
306
303
298
304
303
302
300
304
303
301
302
304
303
303
302
304
303
301
304
307
306
305
303
304
302
303
302
304
302
302
354
345
294
296
296
303
303
306
305
307
308
311
312
317
320
321
319
316
311
306
302
301
303
302
300
303
302
305
303
304
302
303
304
301
305
302
304
303
304
305
307
302
305
304
304
303
304
304
300
312
374
327
301
298
304
305
306
304
306
310
309
312
312
318
321
318
319
316
311
305
302
303
303
302
304
303
304
302
304
305
305
301
303
304
303
304
301
305
305
308
305
305
304
303
303
306
306
305
300
336
373
305
300
298
302
304
302
305
307
308
308
311
315
318
319
320
319
311
307
302
302
301
301
298
303
303
300
301
302
303
301
301
301
302
302
302
304
304
308
303
305
302
302
301
302
303
304
296
335
357
295
293
294
300
299
300
304
304
307
307
309
312
318
315
316
319
311
304
299
301
301
299
299
300
301
301
300
303
303
302
299
303
302
302
302
306
306
304
300
302
305
304
301
304
300
318
367
312
299
296
299
302
305
307
306
311
310
312
315
317
322
323
319
314
310
305
302
302
306
305
301
303
303
304
301
303
304
304
303
301
303
302
303
302
308
305
302
303
304
304
304
300
303
300
348
353
298
296
297
297
300
302
302
303
305
307
311
313
314
317
316
315
310
305
298
300
298
301
301
300
299
301
299
299
297
302
302
302
299
302
300
301
302
305
305
302
301
302
303
303
302
303
300
356
355
296
296
297
298
299
302
303
303
305
309
310
311
315
320
319
315
309
303
299
300
298
299
300
300
297
300
299
298
298
300
300
300
301
300
303
302
299
305
302
302
297
301
299
299
298
301
299
349
349
293
296
294
298
299
304
304
304
306
310
312
312
318
318
318
316
310
304
302
299
299
301
301
301
301
302
304
301
302
304
304
301
301
302
306
305
305
307
306
305
303
305
306
305
304
301
315
366
313
295
296
302
300
305
306
308
305
310
313
315
317
321
321
320
313
309
307
303
301
300
303
303
301
304
304
305
304
302
305
302
304
302
304
304
302
305
305
303
303
301
303
303
305
301
299
335
362
298
297
295
299
300
302
304
305
305
307
311
312
315
317
319
318
310
304
304
302
299
299
302
301
300
301
300
302
301
300
300
301
301
299
303
302
300
303
307
306
304
302
302
304
303
302
304
298
326
370
308
298
296
299
301
304
302
304
305
307
307
310
314
316
314
315
310
306
301
299
298
300
300
299
298
302
302
300
299
300
301
299
300
302
300
300
298
304
305
304
301
302
302
302
302
302
302
297
332
367
300
297
292
298
301
302
301
304
307
309
309
311
314
317
313
316
312
305
297
298
298
298
296
297
300
298
299
299
300
299
299
297
300
300
299
299
304
303
303
299
302
302
300
299
301
296
309
363
315
293
292
293
299
301
303
303
305
306
308
310
315
317
320
317
310
309
302
300
298
300
300
301
299
301
304
303
301
304
301
301
300
304
303
304
302
303
302
301
299
304
301
303
297
336
358
297
295
297
301
302
301
304
305
307
306
312
315
317
317
318
316
311
304
301
300
300
299
298
302
298
299
299
301
300
299
299
299
299
300
298
300
303
303
298
305
301
302
301
302
304
300
336
351
288
289
285
293
294
296
295
298
302
303
303
308
311
316
311
310
308
302
299
299
301
299
300
299
303
299
302
300
300
301
300
299
302
304
303
303
306
304
301
301
305
302
303
300
300
307
374
332
298
296
299
301
302
304
305
302
308
309
312
313
317
319
316
311
307
303
299
297
298
299
298
297
297
301
298
300
296
301
299
298
298
299
301
301
302
303
301
300
299
300
301
301
295
304
363
325
288
293
295
299
300
302
305
304
304
306
312
314
315
318
319
314
305
303
302
300
298
300
301
300
299
299
299
301
300
300
301
301
300
300
302
305
302
301
302
301
301
300
301
301
299
349
343
292
296
295
301
302
304
303
306
308
310
310
315
317
320
316
314
310
304
302
299
302
300
300
300
303
301
300
302
302
301
304
301
303
302
302
302
305
306
305
302
303
301
303
301
303
301
304
364
336
296
294
296
299
301
303
302
305
307
309
310
314
316
316
316
314
309
308
308
309
310
310
309
309
310
309
310
309
311
309
308
307
308
307
305
306
308
308
307
308
308
306
305
305
306
305
306
299
315
379
327
298
295
297
302
299
304
303
305
303
308
311
313
313
317
316
310
304
301
298
298
296
296
297
298
296
297
298
298
296
294
299
297
297
297
299
299
297
296
298
298
303
299
300
298
297
298
300
300
296
302
367
324
291
291
293
298
298
299
300
301
303
304
307
310
315
312
313
312
305
297
295
296
296
294
299
299
297
295
296
299
300
298
296
299
298
299
298
300
301
299
301
301
301
300
299
299
299
303
298
300
353
337
289
294
296
300
298
303
304
305
303
307
312
315
314
315
319
314
308
301
300
298
298
297
299
300
299
300
301
300
300
299
302
301
301
300
300
303
302
302
304
302
301
300
301
303
300
298
304
364
331
292
295
297
301
300
303
305
306
305
309
311
315
314
317
318
315
307
302
301
299
299
298
302
300
300
298
301
299
300
300
301
300
300
299
302
300
301
302
301
299
299
299
300
302
301
296
304
369
335
293
293
296
298
296
301
301
302
300
305
309
311
314
315
316
312
305
300
300
299
296
298
301
299
298
299
300
300
300
299
298
301
299
299
299
302
304
302
302
302
301
298
301
299
301
295
348
358
295
291
293
299
298
298
300
303
304
304
307
312
314
315
316
314
308
301
298
299
297
295
295
299
297
297
297
298
297
296
296
300
299
297
297
299
300
300
298
299
299
299
296
299
295
304
359
319
290
292
295
298
302
300
299
302
304
307
308
312
316
317
315
311
307
302
299
297
299
299
298
298
299
300
298
297
300
299
298
298
299
300
300
299
302
300
298
299
300
300
300
295
303
360
323
291
293
297
298
297
301
305
304
305
307
311
309
318
317
315
313
305
300
300
299
299
298
302
301
298
299
301
300
299
299
300
300
299
298
301
302
302
299
301
301
300
298
302
301
299
299
358
345
295
292
296
300
300
299
301
302
307
304
310
312
314
313
315
312
309
300
299
299
300
298
298
300
300
298
298
300
299
299
298
300
300
301
300
303
302
305
302
305
302
301
301
302
302
300
297
354
358
296
294
295
298
301
297
300
303
304
304
310
311
314
315
314
313
307
300
299
299
296
296
297
298
297
296
297
298
297
296
297
298
296
296
297
300
297
299
299
298
299
297
297
298
299
300
293
306
368
316
291
292
296
298
298
300
302
304
303
305
310
311
314
315
314
311
302
298
299
297
296
293
295
296
295
297
296
298
296
298
298
299
295
295
296
298
299
298
298
297
298
294
298
299
298
294
324
355
295
289
292
296
298
297
300
301
302
303
306
310
311
312
312
313
305
300
296
299
296
294
294
298
298
298
296
298
299
297
297
299
299
297
296
301
300
302
300
300
299
299
297
299
300
300
294
313
366
311
292
293
296
299
298
299
302
303
303
305
311
314
313
314
315
308
303
299
298
297
297
296
299
298
298
298
300
299
298
297
302
300
300
299
300
300
298
300
304
303
301
297
300
299
302
300
300
297
352
353
295
295
295
296
299
299
301
302
303
304
306
309
312
314
314
311
305
301
299
295
296
297
297
296
298
299
297
298
297
299
296
296
296
297
298
297
297
299
300
301
298
299
300
298
295
299
300
297
294
342
352
294
291
291
298
297
297
301
302
304
303
307
311
315
314
314
313
308
300
300
297
296
296
297
300
298
298
299
300
299
297
298
300
297
299
296
301
300
300
299
299
300
298
298
298
298
296
290
308
356
304
285
286
292
294
291
297
297
298
301
303
307
308
310
310
311
306
300
295
295
293
294
292
295
294
296
297
300
298
300
298
299
298
298
299
299
300
303
301
300
301
299
296
299
300
301
294
323
363
299
292
293
298
300
298
302
302
303
303
307
310
313
315
315
314
309
301
298
298
297
296
296
298
298
298
297
300
297
298
297
297
299
298
296
299
302
302
299
301
300
297
301
300
300
301
291
335
364
298
293
291
297
297
296
298
301
301
303
305
308
310
314
313
314
308
302
296
298
294
295
296
297
296
296
296
300
297
296
295
298
299
298
297
300
300
301
298
298
299
298
296
300
299
291
306
369
313
292
287
293
295
297
295
295
299
300
302
306
308
312
311
310
307
302
294
295
294
294
295
292
295
295
296
294
298
295
295
294
297
297
298
299
298
297
296
295
297
296
296
292
296
350
329
288
289
292
294
294
308
307
308
307
310
313
315
316
317
319
314
306
301
300
299
295
298
296
297
296
297
298
297
296
296
296
295
297
295
301
298
296
295
295
296
295
296
295
296
349
332
288
291
292
293
297
298
300
300
304
305
306
308
313
313
313
309
305
300
297
296
296
296
297
296
295
296
297
295
295
298
298
296
296
297
300
301
296
297
297
297
296
299
299
293
306
366
313
291
290
294
297
296
296
298
302
301
305
307
309
310
311
311
305
302
296
294
296
295
294
296
296
297
297
296
298
298
297
295
298
299
298
297
303
300
298
298
298
297
297
297
296
294
352
346
292
293
291
292
295
295
295
296
300
301
304
305
309
313
311
308
301
299
296
292
294
297
296
292
296
295
295
293
294
296
295
294
295
295
295
295
296
297
297
294
294
296
294
295
294
292
340
347
285
288
289
293
293
295
297
297
298
303
304
308
308
311
311
307
301
299
296
292
291
294
294
294
294
294
296
296
295
292
296
293
293
294
296
295
296
297
298
296
296
294
298
295
297
291
305
360
317
288
288
294
295
294
298
298
299
298
301
306
308
310
312
312
307
301
295
296
297
293
296
297
297
294
297
299
298
296
298
299
296
297
295
298
299
297
307
305
305
301
300
302
301
299
295
295
333
358
291
293
293
293
295
298
298
298
297
304
305
307
309
312
312
310
306
298
296
296
294
294
297
297
294
296
300
303
301
302
301
297
295
295
298
297
298
297
298
299
299
294
298
298
303
300
302
297
302
367
335
295
292
293
298
299
299
299
302
304
303
305
310
313
312
312
308
303
298
294
294
296
293
292
292
296
294
293
293
295
294
293
291
295
294
292
295
296
295
299
296
298
297
296
294
297
296
294
291
344
341
283
288
288
293
295
294
297
299
300
300
304
308
311
310
311
309
303
295
294
294
292
291
289
293
293
292
293
294
294
290
295
294
294
292
292
294
292
296
293
294
294
293
293
295
294
294
293
346
334
287
288
292
294
294
295
298
300
302
301
305
311
313
311
312
310
303
295
294
296
294
293
295
296
295
296
295
298
296
295
295
296
298
294
293
299
298
297
297
297
296
294
295
296
298
291
312
362
303
287
287
293
293
295
295
298
300
302
302
307
310
313
310
310
305
302
296
295
295
294
295
294
297
296
293
296
298
297
296
295
298
297
297
297
299
302
297
297
297
298
298
297
300
297
293
335
361
295
292
289
296
297
297
297
298
301
302
302
307
311
312
311
311
307
298
292
293
293
294
291
294
296
293
293
292
294
293
293
296
295
295
293
296
296
303
297
296
296
296
295
295
296
297
292
319
361
296
290
287
294
296
295
295
299
301
301
302
306
311
310
308
311
305
301
295
293
293
295
290
293
294
293
293
295
295
294
293
294
296
295
294
295
296
300
296
299
298
299
297
299
300
297
300
354
330
290
290
293
298
299
299
300
304
303
304
306
310
313
312
312
308
303
297
294
293
295
294
293
293
295
295
295
296
297
296
293
295
298
297
295
295
299
299
298
295
296
296
295
296
299
295
293
352
337
290
291
290
295
297
296
297
301
302
304
304
309
313
313
313
309
305
300
295
296
295
295
294
295
296
295
292
296
294
296
295
295
296
296
295
295
298
298
298
296
298
296
294
294
297
296
296
288
312
369
307
287
290
292
293
296
297
297
298
298
304
308
309
311
312
311
304
297
296
296
293
292
293
294
294
291
292
295
293
293
293
296
294
292
293
293
294
294
294
297
299
295
294
295
293
294
294
296
292
301
362
318
287
285
290
292
295
294
296
299
300
302
304
308
312
311
310
307
301
297
292
292
294
293
292
293
295
296
294
294
296
295
294
293
295
293
293
295
296
298
295
294
296
294
293
296
297
297
289
320
355
295
291
289
294
295
296
295
298
301
301
303
308
310
314
311
311
307
299
294
295
294
294
293
294
295
294
294
295
298
295
295
295
298
297
296
299
299
301
297
296
297
297
296
296
298
297
296
343
343
288
289
291
294
297
297
297
301
300
303
304
307
311
311
311
309
304
299
294
296
296
294
294
295
296
296
291
297
296
295
293
294
296
296
294
296
299
299
295
295
296
295
295
295
299
292
303
366
321
289
288
291
294
295
293
295
298
299
302
301
307
311
308
310
305
302
295
291
292
292
292
291
295
294
294
292
292
294
293
292
291
296
293
293
295
300
294
293
292
295
293
293
293
292
295
357
331
287
287
289
293
295
296
297
296
301
302
303
306
309
311
306
304
300
295
292
291
292
292
291
291
293
293
295
294
295
295
294
291
296
299
300
296
297
297
298
295
296
297
297
292
341
341
288
289
290
298
297
297
298
302
302
304
303
311
311
312
310
310
304
299
296
295
296
295
294
295
296
296
294
296
297
295
292
296
296
297
297
298
300
296
295
296
297
297
295
293
307
358
308
287
289
293
293
292
298
300
298
300
304
304
308
309
312
309
307
299
297
294
293
292
293
295
294
292
294
296
294
293
295
299
295
294
295
295
298
295
296
296
294
294
294
296
295
287
310
362
305
289
286
292
292
293
294
298
297
298
298
307
308
308
309
310
302
299
292
294
294
292
292
294
294
293
292
296
294
295
290
295
292
293
290
296
295
294
296
296
296
295
294
296
295
297
294
290
309
369
310
291
290
292
292
295
296
298
297
300
304
305
307
308
311
310
305
297
296
295
293
292
293
294
293
293
295
293
293
293
294
296
294
293
294
294
293
292
295
296
299
293
295
295
296
294
295
299
292
294
355
336
288
288
288
294
296
296
295
301
300
303
304
310
312
309
310
309
303
297
291
295
291
290
293
294
294
294
293
295
293
292
293
295
294
294
293
294
294
295
292
297
295
296
292
293
294
293
292
293
294
346
332
283
289
288
292
294
296
295
297
298
302
304
308
309
312
310
306
298
297
292
291
291
292
292
292
291
294
294
293
293
294
294
293
293
293
293
294
292
295
298
295
298
295
299
295
293
294
294
296
295
290
309
362
307
289
290
292
292
292
297
298
299
300
304
305
306
308
312
309
306
299
297
295
292
290
293
293
295
293
295
296
293
293
294
294
295
294
296
295
295
293
295
297
296
296
299
298
296
294
295
296
298
294
289
311
368
309
289
290
292
293
296
298
299
300
298
304
305
307
308
311
310
306
298
296
293
292
290
292
292
291
291
296
294
300
308
306
307
307
305
305
307
304
302
305
305
306
304
302
302
302
301
299
301
299
294
345
349
290
287
286
292
293
293
293
297
298
298
300
305
307
309
309
308
301
294
290
288
290
289
288
290
289
290
288
291
288
288
288
290
290
290
289
291
292
293
291
290
289
290
289
287
291
287
300
352
301
282
282
285
289
289
290
289
294
296
297
302
305
309
306
307
305
297
291
290
290
292
289
290
292
299
296
296
297
297
297
294
294
298
298
296
299
300
296
295
297
298
296
295
296
290
307
356
308
288
286
289
290
296
297
297
299
302
303
304
307
311
311
308
305
300
294
291
291
290
290
291
290
292
292
292
290
292
293
291
291
292
294
291
293
294
294
292
292
293
294
294
292
288
294
357
330
284
286
288
288
290
294
294
295
296
300
301
305
306
310
309
305
297
295
293
290
290
293
291
292
293
293
294
293
290
292
294
292
289
294
294
293
296
293
296
294
293
293
295
292
294
289
332
359
289
288
289
290
292
292
296
296
295
298
301
303
306
307
310
305
299
294
292
292
290
288
292
289
289
288
291
292
290
290
291
292
290
289
291
291
291
292
294
293
292
288
292
294
292
292
288
327
350
285
285
285
291
290
293
296
298
298
301
303
307
307
309
310
308
302
295
295
291
290
290
290
292
291
290
294
290
293
290
293
291
291
291
295
295
295
296
297
295
293
293
296
294
294
292
297
354
323
286
288
293
294
293
297
298
297
299
302
306
308
310
312
312
308
300
295
295
294
294
293
295
295
295
292
297
295
296
291
297
295
293
293
297
296
295
295
295
293
293
293
295
293
295
291
295
356
331
285
285
291
290
292
293
297
296
296
297
301
306
307
307
309
305
299
293
295
292
290
288
293
292
291
289
293
291
292
291
293
290
292
291
294
293
294
293
297
297
297
292
294
294
292
292
294
288
315
364
301
293
286
289
291
293
296
293
296
299
300
303
306
311
309
308
303
299
294
290
291
294
295
293
291
295
293
291
291
292
292
292
291
292
293
290
291
291
292
293
293
292
291
289
290
291
293
289
291
287
334
347
285
284
285
289
288
289
292
294
292
296
301
303
304
306
308
306
297
291
292
288
288
288
289
290
287
289
292
288
292
289
292
291
292
290
292
292
292
291
295
292
291
290
293
292
292
290
293
289
323
346
288
287
285
288
291
292
296
295
298
302
303
305
306
310
309
306
300
296
291
290
288
291
291
290
291
294
292
292
292
293
291
295
294
295
295
292
295
301
296
295
293
294
294
291
294
294
291
336
342
286
290
289
289
292
293
294
295
296
301
302
302
306
309
308
306
299
296
292
288
290
290
291
288
290
291
291
290
290
292
290
291
290
293
290
294
291
298
294
293
291
292
294
292
291
292
289
326
356
292
288
285
286
288
292
294
294
296
300
300
303
306
308
308
305
300
296
300
297
296
298
298
297
299
298
298
296
296
298
295
295
296
297
296
294
296
300
297
296
294
296
294
294
293
296
290
339
353
292
289
286
288
291
293
294
293
295
299
301
303
307
310
309
304
298
295
291
287
288
289
289
288
287
291
288
289
287
291
291
288
287
291
288
290
292
293
292
288
289
290
290
288
288
286
293
354
316
282
282
288
288
290
293
293
292
296
298
302
303
307
309
305
301
297
293
290
288
288
290
291
289
290
292
290
291
291
293
291
292
291
295
294
294
293
293
292
291
292
294
294
289
295
351
320
282
284
288
291
293
293
295
295
299
298
304
307
308
308
307
306
297
293
291
291
291
291
292
294
293
291
294
293
294
292
292
294
293
293
293
295
296
296
292
296
294
295
292
295
295
289
294
361
316
283
282
290
290
290
291
294
295
297
298
301
305
307
307
306
303
297
291
289
290
290
288
290
291
292
289
290
291
290
289
290
293
291
291
291
293
293
292
294
296
294
292
291
293
292
293
288
292
354
336
285
287
287
288
288
290
294
293
293
296
299
301
301
305
306
302
295
289
289
288
286
288
288
288
286
291
290
288
288
289
289
290
289
288
290
292
290
290
292
295
294
290
293
294
292
292
293
293
287
311
363
298
289
283
289
290
290
291
294
297
299
300
304
307
310
307
310
304
294
291
289
292
290
290
290
291
291
289
292
292
289
288
289
293
291
289
289
292
290
292
289
295
294
291
291
294
291
292
293
290
298
354
315
282
285
289
290
294
293
296
293
300
303
305
307
313
316
313
308
302
301
296
294
295
298
296
296
298
298
296
294
297
296
296
293
294
296
294
293
292
297
297
295
292
295
293
292
292
294
294
288
320
351
290
286
284
288
291
291
290
294
296
297
296
303
305
308
307
305
301
294
290
291
290
291
288
289
291
289
288
290
292
290
290
289
290
290
288
288
291
290
290
289
295
294
290
290
290
292
292
292
291
290
346
342
288
284
287
290
292
292
293
294
297
300
299
304
306
310
308
305
300
297
290
291
291
291
290
292
290
292
291
290
289
291
292
289
290
291
291
291
292
293
294
292
293
294
295
291
291
296
291
294
288
297
362
322
284
287
288
290
288
293
291
292
294
297
298
300
303
307
306
302
294
290
288
286
284
287
287
287
287
288
289
288
286
287
288
289
286
287
288
288
287
286
291
293
290
288
289
290
289
289
291
286
325
346
287
285
283
286
289
291
291
295
296
299
301
303
307
307
310
306
303
298
294
290
289
292
290
290
289
292
292
293
290
291
290
290
290
292
293
293
291
296
293
292
290
294
293
293
291
295
288
328
342
286
286
284
289
291
293
294
293
298
299
299
304
308
310
310
308
304
301
296
294
296
295
297
294
297
297
297
294
296
297
294
292
294
296
293
293
295
298
295
292
294
295
293
294
292
290
296
356
320
286
283
288
289
292
292
293
291
296
297
300
302
306
306
306
300
294
291
289
285
286
289
286
288
287
290
289
287
288
289
289
289
288
289
289
288
288
296
292
290
288
291
289
290
291
289
289
352
334
283
283
286
286
289
290
291
290
295
297
298
301
305
306
306
303
296
294
291
286
289
289
289
288
288
291
292
290
290
289
290
288
288
290
288
289
290
291
293
289
287
290
288
288
288
292
287
287
347
334
281
281
280
287
288
289
289
293
296
295
297
303
304
307
305
302
295
291
286
287
286
283
284
286
288
287
288
286
286
288
284
287
286
288
284
284
287
287
288
286
285
288
286
284
288
287
281
293
350
305
279
279
286
288
288
291
293
296
298
299
304
305
309
307
308
304
298
292
289
291
291
289
289
291
290
290
291
293
292
292
291
292
293
291
293
294
293
297
294
295
293
292
292
290
295
292
286
309
358
300
285
286
291
291
292
294
296
296
299
301
304
307
307
310
310
304
294
294
293
290
288
289
291
291
290
290
291
292
290
291
293
291
289
290
292
292
292
292
298
296
296
296
299
298
299
296
297
296
355
345
291
290
289
292
296
296
295
296
299
302
302
304
307
310
308
304
298
293
292
288
290
289
290
288
290
289
290
287
287
291
288
289
289
291
288
288
289
290
292
290
290
291
288
290
289
292
290
286
289
359
324
282
279
285
287
287
287
289
292
293
296
298
302
305
303
305
302
295
286
286
286
285
286
287
285
287
285
286
288
288
285
286
288
286
287
287
290
290
292
288
289
290
288
287
289
289
287
288
341
328
277
282
284
287
288
287
291
292
290
294
299
302
304
304
306
301
296
289
287
287
285
282
286
287
287
285
286
287
287
285
286
288
287
286
287
290
290
290
290
291
290
289
288
291
291
286
316
349
288
282
282
290
292
292
290
296
296
297
299
302
309
308
307
306
302
294
291
291
290
288
289
290
290
290
288
292
292
292
289
289
291
291
290
290
293
295
293
290
294
292
292
291
296
293
289
318
361
297
288
285
292
291
293
293
295
297
299
298
306
305
307
307
306
303
295
289
289
289
289
287
292
291
290
289
289
290
289
285
288
289
288
286
288
289
289
294
289
291
288
289
285
291
290
288
286
344
342
280
282
283
285
288
288
290
292
292
293
297
300
301
302
306
301
296
286
287
285
285
282
287
285
286
286
288
285
288
284
286
288
285
286
287
287
287
288
289
292
290
288
289
290
288
289
290
286
301
355
303
282
280
283
287
288
291
291
292
295
297
300
304
306
307
306
297
296
291
288
288
288
287
290
288
291
290
291
289
288
291
288
287
289
293
290
290
290
294
294
292
290
292
291
289
289
290
286
296
350
315
282
283
284
289
291
292
291
293
297
297
301
305
308
307
305
304
299
291
287
290
288
286
289
289
289
288
288
290
291
289
286
288
289
291
287
289
290
291
288
294
291
292
290
288
290
290
290
288
289
337
339
283
285
285
287
288
290
291
290
292
296
300
299
302
308
307
303
297
293
288
286
284
288
286
286
284
287
288
287
286
287
289
288
287
288
288
288
287
288
288
287
292
288
292
290
289
288
290
287
289
284
334
347
282
281
282
286
285
285
290
289
290
293
297
299
304
303
307
304
297
290
288
289
285
282
285
287
284
283
287
287
285
286
286
285
284
286
286
288
288
286
288
293
291
289
288
288
288
288
290
291
284
310
350
289
283
279
284
285
288
289
290
294
296
296
300
306
307
306
304
302
294
287
287
287
287
288
287
289
289
289
288
287
290
288
288
289
289
287
288
289
290
292
289
290
291
290
289
288
291
290
284
306
354
296
283
281
289
292
290
290
292
296
297
300
305
305
306
307
306
303
293
292
290
289
290
287
291
290
290
290
289
290
289
286
289
289
288
288
289
291
289
291
291
295
291
290
289
290
291
289
284
304
362
304
283
285
287
287
288
292
291
292
295
297
300
302
303
306
304
300
294
289
287
287
285
289
287
288
288
288
288
287
285
287
289
286
288
287
289
288
287
289
290
291
288
289
289
288
287
288
290
285
334
347
286
282
281
284
286
288
288
288
292
293
297
297
305
305
304
300
299
292
287
284
286
284
288
284
286
286
286
282
288
286
288
286
285
288
288
286
288
290
292
290
290
291
289
288
290
289
289
283
301
355
300
281
280
285
290
289
290
294
294
295
297
302
305
307
306
305
301
295
288
288
286
286
284
287
288
286
289
289
288
290
287
289
287
289
288
288
290
291
292
290
290
291
288
288
291
290
290
284
315
348
286
284
284
288
289
288
291
294
294
296
300
302
304
305
309
304
299
290
291
289
286
287
290
290
287
289
289
288
290
287
289
293
289
289
289
289
289
290
290
293
291
289
289
290
289
287
291
289
286
328
342
286
284
284
286
289
289
288
290
293
293
297
298
302
305
304
302
298
292
287
285
286
287
286
286
288
286
286
285
286
285
284
286
286
287
285
285
287
286
288
285
288
292
290
288
288
291
289
288
287
289
286
348
335
286
284
283
288
288
290
289
290
294
294
298
299
304
305
304
298
298
291
288
285
287
286
288
286
288
289
287
288
287
288
287
286
287
288
285
284
285
286
285
287
287
290
289
286
285
290
288
285
287
284
296
351
298
283
278
280
282
285
286
287
288
293
294
296
298
303
303
300
296
292
289
285
284
285
286
286
285
284
285
284
284
286
287
285
286
286
288
287
285
288
287
289
289
288
289
287
286
287
288
286
285
289
337
332
280
282
282
288
286
290
292
290
295
294
298
304
304
304
308
304
297
290
289
287
288
285
289
288
289
286
287
288
287
288
288
288
287
287
288
288
288
288
289
292
289
288
286
290
288
288
289
289
286
342
333
280
282
282
286
287
289
287
289
293
294
296
298
305
305
304
300
296
289
286
285
288
286
288
287
288
287
287
285
288
288
286
285
288
288
284
286
286
288
288
291
289
289
288
288
286
288
288
287
281
315
358
291
284
282
286
285
285
291
290
291
293
295
299
301
303
306
304
298
291
289
288
287
287
288
288
288
285
288
286
288
285
286
288
290
286
287
290
288
288
289
291
289
287
288
290
290
287
287
290
285
323
344
283
280
278
284
287
287
288
289
293
293
296
298
303
304
302
302
296
292
286
284
286
286
287
285
287
287
286
288
288
287
286
286
286
288
289
286
290
292
293
288
288
290
289
290
289
290
286
293
353
311
278
281
286
289
290
288
292
294
293
296
299
303
306
306
302
302
297
291
286
288
287
287
288
289
289
287
288
289
287
288
288
288
290
289
287
287
289
291
291
289
289
291
288
288
291
289
286
289
354
322
280
281
285
286
286
287
291
289
291
292
296
301
301
303
303
300
293
288
288
286
286
285
287
286
288
288
287
288
288
286
289
291
290
286
289
287
287
290
292
291
291
289
287
291
291
289
291
285
301
364
309
288
283
286
288
290
288
294
293
297
300
300
303
305
310
305
300
296
291
291
286
291
289
289
288
291
290
290
288
292
291
290
289
291
291
290
291
291
291
293
289
288
291
287
288
288
290
288
285
333
339
280
281
279
288
289
288
292
294
297
300
300
305
308
307
308
306
300
295
290
290
288
289
288
293
292
290
289
292
291
292
289
292
292
290
291
291
293
295
293
292
293
292
291
291
293
291
289
338
336
282
286
285
292
291
293
295
299
298
300
302
307
309
309
309
307
302
296
292
292
290
291
290
294
293
294
292
294
294
292
292
295
295
292
291
292
297
295
294
296
295
296
289
297
293
294
293
293
288
296
356
322
286
284
288
289
291
295
291
294
296
299
301
304
308
308
306
303
297
293
288
288
288
287
287
286
289
289
288
286
290
288
288
286
289
290
288
289
291
291
291
288
290
292
293
293
291
294
290
289
292
291
292
284
301
361
315
284
283
288
287
290
290
291
294
294
296
301
302
304
307
306
304
296
290
290
287
286
288
288
292
288
287
288
289
291
288
290
290
290
288
289
289
292
288
291
291
291
291
294
294
289
289
288
291
288
289
285
300
357
307
282
280
286
287
288
291
291
294
295
301
301
304
305
309
308
301
294
291
289
285
285
286
289
286
286
289
289
286
287
287
288
287
286
289
289
290
289
290
292
293
291
290
293
292
289
290
293
288
303
350
300
284
281
286
291
290
289
292
297
298
299
301
306
307
309
306
302
296
292
290
289
289
289
291
292
291
291
291
293
293
291
291
290
290
291
290
292
292
295
292
291
291
290
289
290
293
292
287
326
348
287
284
286
290
292
291
294
297
296
299
301
305
309
309
308
307
302
296
291
290
289
288
289
290
289
292
289
290
291
289
289
290
290
288
290
292
292
292
292
292
292
292
290
291
292
293
291
288
336
351
287
287
287
290
290
290
292
293
294
295
299
302
303
305
306
304
296
290
290
289
287
286
289
288
288
287
288
289
287
287
289
288
288
286
289
291
289
290
294
291
292
288
290
292
290
289
292
285
311
359
298
287
283
286
287
290
289
291
295
296
298
299
304
308
306
307
300
296
291
287
295
302
300
299
300
298
298
298
295
297
298
296
294
294
296
297
296
299
296
294
290
291
294
291
290
294
289
311
350
292
283
284
286
287
293
291
292
294
296
298
297
303
303
304
301
296
291
284
283
282
281
285
284
282
285
285
282
283
282
285
282
283
284
283
284
283
288
286
288
284
287
286
284
284
287
284
300
346
291
279
279
281
286
288
288
288
292
295
297
297
303
306
304
303
295
295
291
286
284
288
288
285
287
289
287
287
286
289
290
291
288
291
292
291
291
294
292
290
291
292
291
291
291
289
303
360
302
288
284
287
292
291
294
294
294
297
301
305
305
309
310
306
301
296
294
290
289
288
291
290
290
290
293
292
292
288
291
291
289
289
292
292
290
291
296
295
292
292
292
292
291
291
293
290
293
354
331
287
284
287
290
292
291
291
296
296
297
299
302
307
308
304
305
298
291
288
288
286
288
286
286
288
287
289
286
288
287
288
287
288
289
284
290
290
290
289
289
294
290
291
288
291
291
289
288
289
288
338
343
285
286
284
286
290
289
291
290
296
296
297
302
304
307
306
302
296
294
289
287
288
288
288
285
289
290
291
288
287
289
288
286
287
288
287
286
284
291
290
289
293
291
290
288
288
289
292
290
286
291
345
322
278
285
286
287
287
290
291
292
293
298
301
304
304
304
306
299
295
289
289
288
284
285
287
287
288
287
290
287
288
288
290
290
288
287
289
289
291
290
293
293
292
291
292
291
289
289
292
286
295
350
318
283
285
286
289
292
292
291
295
294
296
302
304
306
306
305
301
296
291
286
286
285
285
284
287
288
288
284
286
286
285
286
286
288
286
285
286
288
288
287
290
292
288
286
289
290
289
289
288
284
314
355
292
284
281
284
286
289
290
293
294
297
297
300
302
307
307
304
299
294
289
286
288
288
288
289
285
286
288
286
284
287
286
287
287
287
289
288
287
288
289
290
292
290
291
290
290
290
290
292
289
285
341
347
285
283
285
290
289
288
293
293
295
293
301
302
307
307
309
307
301
293
291
290
288
285
290
289
290
286
290
290
288
287
288
290
289
287
288
291
290
289
289
296
292
289
290
290
292
291
292
288
302
355
307
282
284
284
285
290
290
290
290
295
297
299
302
305
306
306
300
296
288
287
283
286
285
285
284
287
289
290
287
289
289
287
288
288
290
288
290
292
290
292
288
289
291
290
290
289
290
331
337
281
287
287
289
290
293
292
293
294
300
301
304
305
312
311
308
301
297
292
292
290
292
292
291
291
293
293
293
291
292
292
293
291
292
295
294
293
295
297
294
292
291
293
293
293
287
302
357
304
285
282
290
288
290
291
294
292
295
300
301
302
305
308
307
302
293
292
291
288
287
288
289
289
287
291
290
291
288
289
292
290
287
290
292
291
292
291
290
289
289
290
291
288
290
285
322
355
288
284
285
286
287
289
291
292
291
295
298
300
301
304
306
304
294
291
287
288
284
284
289
288
285
287
289
288
289
286
288
288
288
288
288
288
291
289
293
290
289
287
287
288
288
289
285
292
357
317
282
282
286
283
287
289
290
289
293
295
299
300
302
306
306
300
292
289
287
286
284
286
285
285
286
287
287
286
285
287
286
287
284
286
289
287
288
289
291
289
286
287
288
287
285
290
285
320
345
284
281
282
285
288
288
291
290
293
297
298
300
304
307
305
304
297
293
290
288
287
286
289
285
286
288
289
286
288
290
288
288
286
288
289
289
286
293
290
290
285
290
290
289
288
291
285
310
349
292
284
282
285
286
293
291
293
293
295
296
300
303
306
306
299
299
293
287
287
285
287
286
288
286
288
288
285
290
288
288
287
285
290
290
287
286
292
293
291
287
289
289
290
288
287
291
289
294
360
314
285
283
289
290
291
290
292
293
294
296
298
304
305
303
305
304
294
287
287
287
286
284
284
289
287
287
286
288
285
287
288
289
288
288
288
288
288
287
289
291
289
289
288
291
289
288
290
288
286
289
355
325
285
283
283
288
290
290
289
294
297
298
299
302
306
306
308
304
298
290
288
288
288
285
286
287
288
287
287
286
289
288
286
285
289
288
286
287
288
289
289
286
292
288
291
288
289
290
289
289
289
287
329
340
282
284
283
284
288
292
291
289
293
295
298
301
304
307
305
301
297
290
288
285
286
286
286
285
284
286
287
286
285
288
286
284
283
287
286
284
285
288
288
289
288
290
286
287
287
290
288
288
283
305
351
298
279
282
285
288
288
289
292
296
294
298
300
304
305
307
307
302
293
292
290
288
285
288
289
288
290
287
289
290
287
288
288
290
288
288
289
290
286
289
291
291
288
288
287
290
289
288
292
286
307
352
297
285
281
284
287
288
289
288
293
295
296
298
304
307
304
305
