543
536
528
520
511
503
496
491
486
483
481
480
481
483
485
490
493
495
490
487
492
491
487
488
493
492
489
491
495
493
489
492
494
493
490
495
496
493
491
496
496
493
494
499
499
496
497
501
499
494
497
500
497
494
499
501
499
497
502
503
499
498
502
500
497
498
502
500
497
499
502
500
497
500
503
501
498
503
504
502
500
505
506
504
504
509
507
504
506
512
512
509
510
511
506
500
502
502
498
495
500
501
498
497
502
502
497
496
501
510
530
556
572
557
523
497
490
494
495
500
499
495
493
499
498
495
494
499
498
496
497
502
500
497
500
503
501
498
502
505
503
500
506
507
503
503
508
509
505
504
507
504
500
501
505
503
500
504
507
505
502
507
507
503
501
506
505
502
500
506
505
501
501
506
505
500
503
506
504
500
504
506
503
500
506
508
506
506
511
511
509
510
516
517
513
512
513
508
501
502
504
500
496
498
499
496
494
499
499
494
492
499
510
531
555
568
550
514
490
489
494
493
497
498
494
492
498
499
497
495
500
500
496
496
501
500
496
498
503
501
498
501
504
502
499
504
506
505
503
507
507
504
502
505
504
500
500
505
504
500
503
507
506
502
506
509
507
504
509
511
509
506
513
514
510
510
515
514
511
514
520
518
515
519
523
521
517
521
523
520
518
523
524
520
518
522
522
519
518
521
516
509
507
507
502
495
498
499
495
491
495
495
492
489
492
491
493
510
541
561
559
538
509
487
483
494
499
497
492
495
498
497
495
499
500
499
498
504
504
500
500
505
504
500
502
507
505
502
505
508
506
502
506
507
504
501
505
504
500
497
501
500
495
495
500
498
495
497
499
497
493
497
498
495
492
497
498
494
492
497
497
493
493
499
498
495
498
503
502
498
503
505
503
501
506
508
505
503
509
512
511
510
513
510
504
501
503
500
495
496
499
496
491
495
497
495
491
495
494
495
511
542
562
561
538
509
488
484
492
498
495
490
492
495
493
490
494
497
494
492
498
498
494
494
498
498
495
495
500
499
496
498
502
500
497
501
504
501
497
501
502
499
496
501
499
496
496
500
500
497
498
502
500
496
499
502
500
496
500
501
499
497
502
502
498
496
502
502
499
500
505
504
500
502
507
505
503
507
510
507
505
511
515
514
512
516
515
509
505
508
506
500
500
503
500
496
498
501
499
495
497
498
503
521
552
569
561
533
505
488
489
495
500
497
492
493
497
495
492
496
499
497
494
499
502
498
496
501
501
498
498
504
504
500
502
508
507
504
506
509
508
504
507
508
505
502
506
506
503
501
505
506
502
502
506
505
501
503
506
503
499
503
505
503
500
504
506
503
500
505
506
504
503
508
509
506
506
511
509
506
509
514
512
508
512
516
515
513
518
517
511
506
509
506
501
499
503
502
497
498
502
501
498
500
501
500
510
538
564
571
552
524
497
487
493
502
500
495
494
499
497
493
496
500
498
495
499
501
499
496
501
502
500
498
503
504
501
501
506
506
503
506
511
509
504
506
509
507
503
507
508
506
503
507
508
505
503
508
508
504
504
508
506
501
503
506
505
500
503
506
503
500
506
507
504
502
508
509
506
505
510
510
508
510
516
515
511
515
520
519
515
517
517
511
506
508
507
503
500
505
503
499
499
503
501
497
497
500
507
526
555
573
561
528
501
490
492
495
501
499
494
492
497
497
494
495
501
500
496
498
502
499
496
500
502
498
495
501
503
501
499
505
506
503
503
508
507
502
503
507
504
499
502
505
503
500
505
506
504
501
506
507
503
501
506
505
500
501
506
504
500
502
505
504
501
505
508
506
503
508
509
506
503
510
512
509
509
515
515
514
518
522
520
515
516
515
510
505
508
508
505
501
506
506
502
501
506
506
500
500
518
542
563
577
567
533
500
496
504
506
501
503
503
500
498
503
503
500
499
504
503
499
501
506
504
500
504
506
505
502
506
508
507
505
510
510
507
506
511
510
505
502
504
501
496
498
501
499
496
498
500
498
494
498
499
495
492
496
496
493
491
496
494
491
493
497
495
492
494
497
496
492
497
499
498
496
501
502
500
500
507
507
502
500
502
498
492
492
494
491
487
490
493
490
487
492
492
489
485
494
510
532
552
559
536
500
480
485
491
489
489
490
488
484
488
490
489
487
492
493
491
488
494
494
491
491
497
496
493
495
500
499
496
500
503
501
499
503
504
500
497
502
501
497
496
502
501
498
499
504
503
499
501
505
503
499
502
504
501
498
503
504
501
500
505
505
502
502
507
506
503
505
510
510
507
510
513
512
510
516
518
515
510
513
510
505
501
504
503
499
499
503
500
496
498
502
499
493
500
518
542
560
570
551
515
488
491
498
497
495
500
499
495
496
500
499
495
499
502
499
496
501
503
501
498
503
503
501
500
505
505
501
502
507
507
503
506
509
506
502
505
507
504
500
505
507
504
502
507
507
503
502
507
506
502
502
506
504
500
503
505
503
501
505
506
504
502
507
509
506
505
510
511
508
509
514
514
511
515
520
519
514
516
516
510
504
507
507
503
500
505
505
501
499
504
503
498
498
509
527
550
570
569
539
503
491
496
499
497
501
501
497
495
500
499
497
497
502
501
498
500
504
503
499
501
504
502
499
503
504
502
500
505
505
502
501
506
505
501
501
505
504
500
502
506
504
501
505
507
504
501
506
506
503
500
505
505
501
500
504
505
501
502
506
505
502
505
507
506
503
508
509
508
507
512
514
512
511
518
520
517
519
522
518
511
510
511
508
503
506
507
503
500
505
505
502
500
503
504
512
536
566
578
560
530
505
495
497
504
506
502
497
502
504
502
499
504
505
503
502
507
507
504
504
509
507
505
507
511
509
506
510
514
511
509
514
515
512
510
515
514
509
508
513
511
507
509
513
512
508
511
513
511
507
511
512
508
504
509
509
506
504
509
509
505
505
511
510
506
509
513
512
509
513
516
514
511
516
518
516
515
521
522
517
514
517
513
507
506
509
506
501
503
506
503
499
503
504
500
496
507
527
549
566
567
541
505
488
495
501
496
496
499
497
492
495
497
496
493
497
499
496
494
499
499
496
495
500
499
495
496
501
500
496
499
504
502
499
503
504
502
499
503
503
499
498
502
502
499
498
503
502
499
500
503
501
497
500
502
500
498
502
503
499
497
503
503
501
500
505
505
501
502
507
507
504
507
511
510
506
510
515
515
513
517
516
511
505
507
505
501
499
503
501
496
498
502
500
496
498
500
499
507
534
558
566
550
524
497
487
492
501
499
494
493
497
496
492
495
498
497
494
498
500
498
495
500
502
498
496
501
501
498
498
503
503
501
503
507
506
501
504
506
504
500
504
505
503
500
505
506
502
502
507
506
502
502
506
505
501
502
505
502
498
502
504
502
499
503
504
501
500
505
505
503
502
507
506
502
504
509
509
506
509
513
513
510
515
518
513
508
511
509
504
501
505
504
499
500
504
503
499
501
504
500
496
508
532
555
567
564
536
500
485
494
500
497
495
498
497
493
495
500
498
494
497
500
498
495
499
501
499
496
500
501
498
496
502
501
499
499
505
505
501
503
506
504
500
502
504
502
498
503
504
501
499
505
506
502
501
505
504
500
501
505
503
498
500
503
501
498
502
504
502
499
505
507
503
502
507
507
504
503
508
506
501
504
509
509
505
508
512
512
510
516
518
514
509
511
509
504
500
503
502
498
499
502
500
496
499
501
499
496
512
538
561
571
562
533
501
490
501
505
501
499
502
501
498
499
503
502
498
501
503
501
499
503
505
502
500
506
506
503
501
507
507
504
506
511
510
507
509
513
510
506
509
511
508
505
510
510
507
505
509
509
505
505
509
507
503
504
509
507
503
506
508
505
501
505
507
505
503
508
509
506
505
510
509
506
506
510
508
504
507
511
510
507
510
512
511
510
516
518
516
513
516
513
506
503
507
505
500
500
503
501
497
499
502
499
495
501
515
536
556
571
557
524
494
492
497
498
498
501
499
495
497
500
498
494
498
501
499
496
500
503
499
497
502
502
499
499
504
503
500
502
507
506
503
505
508
505
501
505
505
502
498
502
503
500
499
504
503
499
499
503
501
497
498
501
500
496
499
502
500
496
501
502
499
497
502
502
499
499
504
503
500
501
505
503
500
503
506
506
504
508
510
508
507
514
516
513
510
514
510
503
501
504
502
497
498
502
501
497
500
502
499
495
502
517
537
556
569
552
519
492
492
498
499
499
501
498
494
496
500
498
494
499
501
500
497
502
502
499
498
504
504
501
501
506
506
502
504
507
507
503
507
509
507
504
508
508
505
502
506
507
504
504
508
508
505
505
509
507
503
505
508
506
502
506
507
505
501
506
507
504
502
508
508
504
504
509
508
505
506
510
508
504
507
510
507
504
510
512
509
507
514
517
515
514
517
514
507
505
508
505
500
501
503
501
497
501
501
498
495
499
502
513
535
564
572
552
519
497
489
492
497
501
497
492
496
498
496
492
497
499
497
495
500
501
498
497
503
502
499
500
505
503
499
501
505
504
501
505
507
505
502
507
507
504
501
505
504
500
499
504
504
500
500
504
502
498
500
503
501
497
501
501
499
496
501
501
498
497
501
502
499
500
504
503
499
502
505
503
500
503
505
503
500
504
505
504
503
509
509
506
507
513
514
511
511
512
507
501
501
502
499
494
498
498
496
493
498
498
495
492
498
510
530
555
572
557
523
494
488
492
493
496
497
494
490
495
497
494
492
498
498
495
494
499
499
495
496
501
499
496
499
502
501
498
503
505
504
502
508
509
506
504
508
507
504
503
507
506
503
506
509
508
505
508
510
507
503
507
508
506
503
508
508
504
503
508
508
505
507
511
510
507
510
513
512
508
511
513
511
508
513
514
510
509
514
515
514
514
519
518
516
520
525
523
517
517
517
513
508
511
510
507
505
509
510
506
505
509
508
503
511
534
558
572
572
551
516
495
499
507
506
501
504
504
500
499
503
503
500
500
506
505
500
502
506
504
500
503
506
504
502
505
506
504
502
507
508
506
506
510
509
506
506
509
508
503
506
509
507
504
508
509
506
502
506
508
505
503
508
507
502
502
506
505
501
502
506
504
501
504
507
505
501
506
508
505
502
507
507
505
504
509
509
506
507
512
511
509
513
518
515
510
511
510
506
500
503
503
500
497
501
502
498
498
503
501
497
504
527
549
565
566
545
510
488
492
501
500
495
498
498
495
494
499
498
495
495
500
498
495
497
500
499
495
499
502
500
497
502
503
500
499
504
504
501
501
505
503
499
500
503
502
499
501
504
502
499
504
505
502
499
503
503
500
499
503
502
499
498
502
501
498
500
504
502
499
503
506
504
501
505
506
503
501
507
507
503
502
508
508
505
506
511
510
508
511
516
514
509
510
509
504
500
503
502
498
496
500
500
497
498
502
499
495
504
527
549
563
562
538
504
485
492
500
499
494
498
497
493
492
497
496
494
495
499
497
493
496
499
497
494
498
500
499
497
502
503
500
499
505
506
502
503
508
507
503
504
507
505
501
503
506
504
501
505
506
504
501
505
505
502
501
505
504
499
500
504
502
498
501
504
503
500
504
506
503
501
505
506
503
502
506
506
503
502
508
508
506
507
512
512
510
515
517
514
509
511
509
504
500
503
502
498
497
501
500
496
497
501
498
494
506
532
555
567
561
533
498
483
493
500
496
493
496
496
493
493
498
497
493
495
499
497
493
496
498
496
493
498
499
497
496
502
502
499
498
503
504
501
501
505
504
499
501
504
502
498
501
503
501
500
504
505
502
500
504
504
500
500
504
502
498
500
503
501
498
502
505
504
500
504
506
504
502
506
507
504
502
507
506
502
502
508
507
505
508
511
509
506
513
517
516
514
517
516
509
505
508
507
503
501
505
503
499
501
505
503
498
500
505
515
535
564
577
561
527
502
494
497
499
503
501
497
497
502
500
497
499
502
501
498
502
504
503
500
505
506
503
501
506
507
504
504
509
508
505
507
511
511
508
510
512
509
505
509
510
508
506
511
512
509
508
511
510
506
507
510
508
504
506
510
508
505
508
510
507
504
508
510
507
505
511
512
509
508
513
512
508
508
512
511
507
510
514
513
510
514
515
514
513
518
520
516
512
514
510
505
503
507
505
501
503
506
504
501
503
505
501
498
511
534
557
570
567
538
503
489
498
502
499
497
500
498
495
498
500
498
495
499
500
498
496
502
501
498
497
502
501
497
498
503
501
498
500
503
501
498
502
504
502
499
503
503
500
497
502
502
500
499
504
503
499
500
504
503
498
499
502
500
497
500
502
499
497
503
504
501
499
504
503
500
501
506
506
501
503
506
505
501
505
507
506
504
509
511
509
509
515
516
513
510
513
509
503
502
505
502
498
500
502
500
495
500
502
499
495
502
516
536
557
573
557
523
494
490
495
496
498
500
497
494
497
499
497
494
498
499
496
495
500
501
498
498
503
503
500
501
506
505
502
504
508
506
504
508
510
508
505
509
509
506
503
507
507
503
503
507
507
502
504
508
506
502
505
507
505
501
504
506
504
502
506
506
502
501
506
506
503
504
508
507
503
506
510
508
504
508
511
509
507
513
515
512
511
518
520
517
516
518
514
507
506
507
505
501
503
505
503
500
503
504
501
498
502
508
521
545
571
573
548
515
496
493
497
501
503
499
496
500
501
499
497
501
502
500
498
504
504
501
501
505
505
501
503
507
506
503
506
509
508
506
510
512
509
507
512
512
508
505
509
509
505
505
510
510
506
507
511
509
505
508
510
506
503
507
508
505
502
508
507
504
503
507
507
504
506
510
508
505
507
510
508
505
509
511
508
506
512
514
511
509
515
516
514
516
520
518
512
511
512
508
504
507
508
505
501
505
505
502
500
503
501
501
515
545
568
573
555
524
495
487
497
504
500
495
497
499
497
494
500
500
498
497
502
502
499
500
504
503
498
499
503
502
499
503
506
505
503
507
508
505
503
508
508
504
502
506
506
502
502
506
505
502
505
508
505
501
505
505
503
500
504
504
500
499
503
503
499
500
505
504
501
503
508
506
503
507
509
507
504
508
509
506
504
508
508
506
505
510
509
507
508
514
515
513
515
515
511
505
507
506
503
500
503
503
500
498
503
503
500
499
502
506
522
550
574
574
547
516
495
492
496
503
503
498
496
501
501
499
498
503
502
499
499
503
503
500
503
505
503
501
505
507
504
502
507
508
506
504
509
510
507
506
510
509
504
505
508
506
503
506
508
506
503
507
508
505
502
507
506
503
502
506
505
502
503
506
505
502
505
507
504
501
506
509
507
505
509
510
506
505
510
509
506
507
513
512
509
511
516
516
513
517
519
514
509
511
509
505
500
503
503
499
499
504
502
498
499
502
500
503
526
554
571
565
543
510
490
489
501
502
498
494
499
498
495
495
499
498
495
496
499
498
495
499
502
500
496
500
502
500
498
503
504
502
502
508
507
503
504
508
506
501
503
506
505
500
503
506
504
502
506
507
504
502
506
505
501
501
504
503
499
500
504
503
500
503
506
504
501
505
507
505
502
507
508
505
504
509
509
505
506
512
511
508
511
517
519
517
520
518
513
507
509
508
504
502
505
504
501
500
505
504
500
500
503
507
522
549
571
568
541
511
493
492
496
502
501
496
495
499
499
497
498
501
500
497
500
503
502
499
503
505
502
500
504
506
503
502
507
508
505
504
509
508
505
507
511
509
504
506
508
507
504
508
510
508
505
509
509
506
504
508
507
503
502
506
506
502
505
508
507
504
507
509
506
503
508
510
508
506
510
510
507
506
512
514
509
510
514
514
513
517
520
518
513
514
513
508
504
507
506
503
502
506
505
501
501
504
502
498
507
530
554
570
570
545
508
488
495
502
501
497
500
499
496
496
500
499
496
498
502
501
497
500
502
500
498
502
504
502
501
506
507
505
504
508
508
505
505
510
509
505
506
508
506
502
505
507
506
503
507
508
506
504
508
507
504
504
507
506
503
504
508
507
503
505
508
507
504
508
510
508
505
508
509
507
505
511
512
510
512
517
516
513
516
521
520
516
518
518
513
507
508
507
504
502
505
504
500
499
504
503
499
499
506
520
543
569
576
554
518
496
495
500
500
502
501
498
497
501
501
497
498
502
501
498
501
503
502
499
503
505
503
501
505
506
503
501
508
509
507
507
512
511
508
508
511
509
504
507
510
508
505
509
510
507
504
508
509
505
503
507
507
505
505
509
508
505
506
509
508
505
509
512
509
505
509
511
509
508
513
514
513
514
518
517
514
517
522
521
517
517
517
513
508
510
511
508
505
508
508
505
503
507
506
502
500
508
522
542
564
570
546
509
490
492
500
500
505
506
505
505
511
514
511
511
516
516
513
513
517
517
513
516
520
519
517
521
523
520
518
522
523
520
518
522
521
517
516
519
518
514
515
518
516
512
515
517
515
511
514
515
512
508
512
511
508
508
513
513
508
509
513
512
508
510
513
511
508
513
516
514
512
516
520
518
517
521
521
519
520
526
525
520
519
521
515
509
510
511
508
504
507
507
503
500
504
503
498
496
510
532
554
568
562
532
496
485
493
497
495
497
496
494
492
496
497
494
492
498
499
495
495
498
498
496
498
501
500
496
499
502
501
498
501
502
500
497
501
501
499
498
502
500
497
497
500
499
495
497
499
497
495
497
498
495
492
495
496
492
489
493
493
491
491
495
495
491
493
496
495
491
494
496
495
494
498
501
500
497
502
504
502
503
508
507
503
501
503
499
493
493
494
491
488
491
493
491
488
492
491
486
486
504
530
553
563
551
516
481
477
489
491
487
487
489
487
484
488
489
487
485
490
490
488
487
492
492
488
489
493
492
489
491
495
494
492
496
499
498
495
499
500
497
494
499
499
495
494
498
497
494
496
499
498
494
497
499
498
495
498
499
496
493
498
499
496
495
500
500
497
497
502
500
497
499
502
500
496
500
503
503
502
506
508
506
506
512
512
508
506
507
504
498
498
500
497
494
496
499
497
495
498
499
495
492
505
528
552
569
567
538
502
487
495
499
496
495
497
495
492
496
498
496
494
499
499
497
496
502
502
499
499
504
504
501
503
507
506
504
507
510
508
505
510
511
508
506
510
510
506
505
509
509
506
507
510
509
505
506
509
507
504
507
509
507
504
507
508
505
503
508
508
505
505
510
510
507
507
511
510
507
510
514
512
509
514
515
514
513
520
521
519
516
519
516
510
508
509
507
503
505
508
506
503
506
507
504
500
502
508
525
549
574
574
548
515
499
498
500
503
505
503
499
501
504
502
498
501
503
501
499
503
504
501
500
505
504
501
501
506
505
502
504
508
507
505
507
510
508
505
509
509
506
503
508
509
506
505
510
509
505
505
509
508
505
506
508
507
503
506
508
505
502
506
507
505
504
508
507
505
506
511
509
505
507
510
509
507
512
515
513
511
516
518
517
515
519
517
511
507
509
506
502
503
506
504
500
502
504
502
499
501
504
514
536
564
575
558
525
501
492
496
501
504
501
497
499
502
500
497
501
503
502
499
502
503
501
499
504
505
503
502
507
506
504
505
510
509
506
508
510
509
506
508
509
506
503
506
506
502
501
506
506
503
503
507
506
502
503
507
505
502
504
506
504
502
507
508
505
503
508
508
504
505
509
508
505
505
509
509
507
510
513
512
509
514
518
516
515
519
517
511
507
509
507
503
502
505
503
500
501
505
504
500
501
503
506
520
550
572
571
545
516
494
492
499
504
502
497
496
499
498
495
497
500
498
495
499
501
499
497
502
503
501
500
505
504
501
502
507
507
504
506
510
508
505
509
511
508
504
507
508
505
502
506
507
504
503
507
507
503
503
507
505
502
504
506
504
501
505
507
505
502
507
508
506
505
510
510
507
507
511
510
509
512
516
515
512
517
520
520
519
523
523
518
513
515
513
509
508
511
511
506
507
510
509
505
506
508
506
513
541
569
581
568
542
513
498
502
512
512
507
505
509
507
505
507
510
509
506
510
512
510
507
511
513
510
507
513
514
511
511
515
514
512
513
518
518
514
516
519
517
512
515
516
513
510
514
514
511
509
513
512
508
507
511
509
504
505
507
505
501
504
506
503
500
504
505
503
499
504
505
502
501
506
507
505
506
510
508
506
509
514
514
510
511
511
506
501
503
502
498
495
499
499
495
495
498
497
492
493
498
508
528
555
568
553
520
496
490
494
496
499
498
495
494
498
498
495
496
499
499
496
499
502
500
497
502
505
503
501
506
508
505
503
508
508
506
506
511
510
506
507
510
507
504
506
507
506
503
507
510
507
505
509
509
506
505
508
507
503
503
507
505
502
504
507
505
502
506
507
506
504
508
509
506
507
514
515
512
511
516
517
516
517
521
517
510
510
510
505
501
503
504
502
499
503
502
499
498
502
500
499
515
543
562
563
546
517
492
486
497
502
498
494
497
498
495
492
495
495
492
494
499
499
495
497
500
497
493
496
499
496
492
495
497
497
498
506
507
503
502
507
506
502
501
505
504
499
500
503
500
496
499
501
499
497
501
500
496
494
498
498
495
494
497
496
494
496
499
498
495
498
501
500
497
502
504
503
501
506
507
506
507
513
513
507
505
506
502
497
498
499
497
493
496
498
497
494
498
498
494
496
514
538
558
566
553
520
489
487
498
499
495
496
498
496
493
497
499
496
494
499
501
499
498
502
501
498
499
503
502
500
503
507
506
503
507
510
508
505
510
511
507
505
509
508
504
504
508
507
505
507
510
509
506
509
510
508
504
508
509
507
505
509
509
507
506
511
511
507
508
513
512
509
512
515
515
513
518
519
517
516
522
523
521
518
521
518
512
510
512
510
505
505
508
506
502
505
508
506
501
505
513
530
552
574
570
541
506
494
498
501
503
505
502
498
500
504
502
499
502
505
502
500
505
505
503
501
506
506
503
503
508
509
505
506
510
509
506
509
512
510
506
510
511
508
505
510
510
508
507
513
513
510
510
514
512
509
511
514
512
508
512
514
512
510
515
515
512
511
515
515
512
512
516
515
512
514
519
519
515
519
522
522
521
527
527
524
519
521
518
512
509
513
512
508
507
511
511
508
510
512
509
508
527
555
577
581
565
531
502
497
510
513
509
507
509
507
503
504
508
506
502
505
507
504
502
505
506
504
502
506
507
505
504
508
507
504
506
510
509
506
507
511
509
505
508
509
507
505
508
510
507
506
510
509
505
504
508
507
503
504
508
506
503
505
507
504
501
504
506
504
502
507
507
504
503
509
511
509
510
514
512
510
515
519
517
514
515
514
508
502
505
504
502
499
504
504
501
500
504
502
496
495
504
522
544
566
566
540
503
489
492
496
495
498
496
492
491
496
495
492
492
496
495
492
494
497
495
492
496
498
496
492
497
499
495
494
500
499
493
491
499
502
498
498
499
497
493
495
498
496
493
497
498
495
493
497
497
493
490
494
494
490
491
495
494
489
489
491
493
493
497
499
496
494
498
499
499
498
503
504
501
501
504
500
498
503
506
501
495
495
497
497
495
497
496
492
490
495
495
489
487
496
507
527
552
571
560
528
501
497
503
505
509
510
506
502
506
507
504
502
508
510
507
507
511
511
506
505
510
509
510
518
522
518
514
518
518
515
512
517
517
513
510
511
508
503
501
503
501
497
498
502
500
494
495
496
494
491
495
494
489
486
492
491
486
486
492
492
491
493
497
496
493
496
500
500
498
503
506
502
502
511
514
513
513
515
513
507
505
508
505
501
502
505
503
499
500
500
499
499
502
505
514
535
561
568
548
516
495
491
494
498
501
498
494
497
499
496
493
498
500
498
495
500
501
496
496
502
502
500
502
506
504
501
503
507
506
504
507
509
507
504
506
506
503
501
505
505
502
501
505
504
500
501
504
503
500
502
503
501
498
501
502
501
498
502
503
500
500
505
504
500
500
503
502
499
502
507
508
505
508
511
511
511
516
516
511
506
508
505
500
499
503
501
496
496
497
496
495
497
499
497
501
524
550
565
560
540
507
487
488
498
499
493
490
494
494
492
495
497
496
494
499
502
500
497
503
505
504
502
507
508
505
506
513
512
509
511
515
512
508
512
516
513
508
511
512
509
507
512
513
510
510
514
513
509
508
511
509
506
507
510
507
503
506
508
506
504
508
509
506
505
509
509
507
509
513
512
508
511
517
517
516
519
522
519
514
515
513
509
505
508
507
504
503
506
505
501
501
504
502
499
508
530
553
566
563
539
505
487
495
502
499
496
499
500
498
499
503
502
499
501
504
502
499
503
506
503
500
504
506
504
502
506
506
504
503
507
507
504
505
509
508
504
505
508
505
501
505
508
507
505
509
509
505
503
507
507
504
502
505
504
500
502
506
504
501
503
505
502
499
502
504
502
501
507
510
507
507
513
514
512
515
519
517
512
511
512
508
504
505
506
503
500
503
505
502
499
503
501
498
505
528
550
563
559
538
505
487
494
502
501
496
498
499
497
495
499
500
497
496
500
500
498
498
503
502
499
501
505
504
502
506
508
507
505
509
511
509
508
512
511
508
507
511
509
506
507
511
510
507
510
513
511
507
510
511
509
507
511
511
508
506
510
509
505
506
509
508
505
507
510
508
507
512
514
512
510
514
517
516
515
520
519
515
512
513
511
506
506
508
505
502
505
508
506
503
506
506
504
511
537
561
570
556
530
502
491
498
506
504
498
499
502
500
497
500
502
500
497
501
502
500
499
503
503
500
500
504
504
500
502
506
505
502
505
508
506
502
505
506
503
500
504
504
501
500
505
505
501
501
505
503
499
501
503
501
498
501
502
499
497
500
502
500
499
503
502
500
500
505
504
501
503
508
508
505
508
511
510
508
513
515
511
506
508
505
500
498
502
500
496
496
500
500
496
498
500
497
496
510
535
557
565
554
524
495
486
496
500
496
494
496
495
492
493
496
496
493
495
498
496
494
498
499
497
496
501
502
499
499
503
504
501
502
506
505
501
503
507
504
500
503
504
502
498
501
503
501
499
503
503
499
498
502
500
497
498
501
499
495
498
500
496
493
498
502
499
492
491
490
492
500
510
510
505
505
509
508
506
509
513
513
508
509
509
503
496
497
497
495
488
491
491
492
495
500
498
493
493
506
527
549
566
558
526
492
486
492
497
494
495
495
493
493
496
495
493
493
497
496
493
496
499
496
493
498
503
503
501
505
507
504
503
507
505
500
503
510
509
504
504
506
504
501
504
507
506
504
508
510
508
506
510
510
507
506
509
507
502
501
507
507
505
508
510
508
507
513
515
512
509
514
515
514
513
519
519
516
512
515
519
519
522
524
520
514
513
513
509
504
508
509
507
504
507
507
504
501
506
511
524
548
568
565
537
508
494
496
500
504
504
500
496
501
501
499
498
503
503
501
501
505
504
501
503
507
505
502
505
508
507
505
509
510
508
506
511
512
508
506
509
508
504
503
507
506
503
505
509
506
503
505
506
502
500
505
507
505
502
505
505
502
501
506
506
502
503
507
507
504
506
508
507
505
509
512
512
510
515
516
514
514
520
519
515
512
512
509
503
504
506
504
500
503
505
503
500
503
504
500
501
518
540
560
569
558
526
494
489
501
504
500
499
500
499
497
500
502
499
497
502
503
502
501
504
504
501
503
507
506
502
505
507
506
505
509
511
509
506
510
511
508
506
509
509
504
503
508
507
503
505
509
507
504
507
510
508
506
509
510
508
505
509
510
508
507
512
512
509
509
513
512
508
510
513
512
509
513
516
515
513
517
518
517
516
520
519
514
511
513
511
506
504
506
505
503
504
505
503
500
503
503
500
506
530
555
569
562
540
508
492
497
506
505
500
501
503
502
499
502
504
503
501
504
505
503
503
507
508
504
503
508
508
504
505
508
507
504
509
511
510
507
510
510
508
506
509
509
507
505
508
508
505
505
509
507
503
504
508
507
502
505
506
504
502
506
507
505
503
507
507
505
505
509
508
504
506
509
508
506
509
514
513
510
514
517
516
515
519
517
512
509
510
507
503
501
504
503
500
502
505
503
499
502
503
504
518
545
566
565
542
514
492
490
497
503
500
495
495
499
498
495
497
500
499
497
501
502
499
498
503
504
502
501
506
506
503
504
508
507
505
506
509
508
504
507
508
505
502
505
506
503
501
506
507
503
504
507
506
502
503
507
505
501
503
506
505
503
507
507
505
503
507
508
506
506
511
511
508
508
511
510
507
510
516
514
510
514
517
517
515
520
520
515
510
512
510
505
504
507
506
503
504
506
505
502
504
505
504
512
539
564
575
558
531
500
488
494
504
503
499
498
501
501
498
499
501
500
497
501
503
500
497
502
503
500
499
503
504
500
500
505
505
502
503
507
505
501
504
506
503
499
502
503
501
498
503
504
502
502
508
507
504
504
508
506
502
504
507
505
502
506
507
506
504
509
510
507
506
510
511
507
507
512
511
507
508
513
512
510
512
515
515
513
518
520
517
512
514
511
506
503
506
505
501
500
503
502
498
500
502
499
497
513
541
566
576
564
528
494
485
496
500
496
493
497
498
494
494
497
496
493
495
497
495
493
497
499
497
494
499
499
497
496
500
500
497
499
504
503
500
503
505
503
499
502
503
500
498
502
503
501
500
505
505
501
500
504
503
499
500
504
503
499
501
503
502
501
504
504
502
500
506
507
504
503
508
508
505
505
510
509
507
510
514
512
510
515
519
519
516
519
518
514
509
511
509
505
504
507
506
504
505
508
506
501
502
505
518
542
572
585
566
528
501
493
497
501
505
502
497
497
502
501
497
500
503
502
499
503
506
504
501
506
507
504
503
508
509
506
506
511
510
507
509
513
511
507
508
509
507
504
507
510
507
505
510
512
509
508
513
513
509
508
512
510
507
508
510
508
505
507
509
507
505
510
511
509
508
512
512
509
509
513
512
508
511
516
516
512
515
519
519
517
522
522
518
514
516
513
508
505
508
507
503
504
507
506
503
504
506
504
507
531
559
576
570
547
513
492
492
504
505
500
498
502
501
498
499
503
502
498
500
503
501
498
501
504
503
502
506
507
504
504
511
512
508
508
513
512
509
511
512
509
507
509
509
506
503
508
508
506
503
507
506
501
499
504
501
497
498
501
500
496
498
501
499
496
499
500
498
496
500
502
501
500
504
504
501
502
506
506
503
506
510
508
508
514
518
515
511
511
508
503
499
503
503
499
496
498
494
494
498
503
500
496
502
519
542
560
568
549
513
487
489
497
496
493
495
494
489
488
493
493
490
493
497
495
492
496
498
495
490
494
499
500
497
501
500
498
498
503
502
498
499
503
502
498
500
501
499
495
498
499
497
496
501
500
497
496
500
498
494
494
498
495
491
493
496
494
491
494
495
494
490
493
495
493
495
502
501
498
497
502
501
499
501
505
503
500
505
510
508
503
506
507
503
499
502
502
498
496
499
498
494
495
499
498
494
495
499
509
529
556
568
551
522
501
493
495
494
496
496
494
493
497
495
492
494
498
498
494
497
501
499
497
501
502
501
499
503
505
504
503
508
508
506
506
509
508
505
507
509
507
504
506
508
506
502
503
506
508
506
510
509
506
507
511
509
506
507
510
509
506
508
510
509
507
510
511
510
508
512
513
510
509
514
514
512
513
517
516
513
516
521
520
517
520
519
514
509
511
511
507
505
510
510
507
506
509
508
505
504
509
522
543
568
578
558
522
499
496
502
504
507
505
501
500
504
504
502
502
506
505
501
503
507
506
503
506
509
507
505
509
511
509
507
512
512
509
508
513
512
508
509
512
510
506
507
510
507
505
510
512
510
507
511
511
508
506
509
509
506
507
510
508
504
506
509
507
503
506
509
508
505
509
511
509
508
513
514
512
512
516
515
513
516
521
520
515
515
515
510
505
507
506
504
501
505
505
502
500
504
503
498
499
515
537
557
570
558
523
491
487
496
499
495
497
497
495
492
496
496
493
492
496
496
493
494
497
495
492
496
499
497
494
499
501
500
498
503
504
501
499
503
503
500
499
502
500
496
497
500
499
497
501
503
501
498
501
501
498
497
502
502
499
498
501
500
497
498
502
501
498
500
502
500
499
503
504
502
501
506
508
506
505
510
510
509
511
515
513
507
506
506
502
498
499
500
497
494
498
499
495
494
498
497
496
507
536
559
568
554
525
494
484
494
500
497
493
496
497
494
491
494
494
492
492
497
495
493
494
498
497
494
496
499
497
496
500
502
500
499
504
505
502
500
505
505
500
498
501
500
496
496
499
499
496
499
501
499
496
500
501
498
496
500
501
497
496
500
500
496
497
501
501
497
499
503
502
499
503
505
504
502
507
510
508
507
511
513
513
514
518
516
510
508
509
505
500
501
502
500
496
499
501
498
496
500
499
498
510
539
562
569
552
523
494
486
494
501
498
492
495
496
494
492
495
497
495
494
498
499
497
497
501
500
498
498
502
501
498
501
504
502
499
502
504
503
501
506
505
502
501
505
504
501
502
506
506
503
505
508
506
503
506
508
506
503
506
507
504
503
508
507
505
504
508
508
505
506
510
509
505
508
511
511
509
514
515
513
511
517
520
518
516
518
516
509
506
508
506
501
501
504
502
500
504
507
504
501
503
511
530
554
574
566
533
502
494
498
499
500
502
499
495
497
501
500
498
501
501
498
496
501
502
499
499
503
503
500
501
504
503
501
503
506
505
502
505
507
503
499
503
506
503
502
506
507
504
504
509
509
506
507
511
509
504
506
507
505
503
507
510
507
504
508
509
507
505
509
508
505
505
510
509
507
509
514
513
510
514
517
517
514
519
520
516
512
513
511
507
506
509
508
504
505
509
507
503
502
501
500
506
529
555
573
570
551
518
495
495
507
507
502
501
505
503
500
503
506
504
500
503
507
503
499
505
507
504
503
508
508
505
505
510
511
507
507
510
509
507
510
512
508
506
510
510
508
506
511
513
511
509
514
515
511
510
514
512
507
509
515
515
511
512
514
513
508
512
514
511
509
513
512
508
507
512
513
510
512
516
514
511
514
516
514
513
516
516
513
507
510
509
504
502
507
505
502
502
507
506
502
501
504
514
534
561
574
558
525
500
493
498
501
504
502
498
498
502
503
500
502
505
504
502
505
508
506
502
506
508
504
502
508
510
506
506
511
511
508
508
511
509
505
505
508
507
502
504
504
502
499
503
504
501
499
502
502
500
499
500
500
497
498
501
499
495
498
503
503
499
503
505
503
499
500
502
503
503
508
509
507
508
512
510
507
510
515
514
510
510
509
505
500
502
501
498
495
499
499
496
495
499
498
493
493
503
521
542
563
566
539
503
488
491
495
494
496
496
493
492
496
496
493
493
497
497
494
496
499
498
495
498
501
500
498
502
503
501
500
505
506
503
502
506
505
501
501
504
502
498
501
504
502
501
505
507
506
504
508
508
505
504
508
506
503
504
508
507
503
505
509
508
505
509
510
508
506
510
511
509
508
513
514
512
513
517
517
514
516
522
522
520
520
520
516
510
511
510
507
504
508
509
505
504
509
509
506
503
511
526
549
572
577
551
513
494
497
502
500
502
502
498
495
500
500
498
498
502
502
499
500
504
503
499
502
505
504
502
504
504
503
502
507
508
505
504
508
507
504
503
507
504
500
501
504
503
501
504
505
504
503
506
507
503
500
505
506
502
502
506
506
503
504
508
507
505
507
509
507
504
509
510
508
505
510
512
511
510
514
514
513
514
519
519
514
513
514
510
505
507
508
505
501
505
507
504
502
506
505
501
501
517
539
560
572
560
527
495
491
500
502
499
501
502
500
497
501
501
498
497
503
503
501
501
506
506
503
504
506
504
501
506
509
507
505
509
510
507
505
511
511
507
505
508
507
504
506
510
509
505
508
511
508
505
507
509
505
504
509
510
505
500
507
510
507
506
508
508
506
508
512
510
505
508
512
511
510
515
517
513
510
517
519
518
519
523
521
513
510
511
509
505
507
508
505
499
503
503
502
501
505
504
501
510
536
561
571
559
532
500
484
491
502
502
498
500
501
498
495
497
499
499
498
502
501
499
498
502
501
497
499
503
502
499
501
505
505
502
506
507
505
503
506
505
502
498
502
504
501
502
506
505
502
505
507
505
502
504
505
502
498
502
503
500
497
501
501
499
499
504
503
500
502
505
504
500
502
503
502
501
506
508
508
506
509
509
507
506
513
514
509
505
506
506
503
505
507
503
499
504
507
505
502
506
507
504
505
524
549
568
574
562
529
499
495
505
508
503
502
503
499
496
500
501
498
494
497
500
501
500
502
500
496
495
499
499
496
499
501
499
497
502
507
505
497
502
502
499
501
508
510
505
503
507
507
505
506
511
510
507
510
511
508
503
505
507
506
505
508
507
504
503
506
506
503
504
509
509
506
507
509
508
505
508
512
512
508
511
514
514
513
518
517
512
510
512
507
502
502
503
502
499
502
505
503
500
503
503
500
501
521
547
563
562
544
512
488
489
501
502
497
498
500
499
497
499
501
500
497
501
503
501
500
505
505
503
502
507
506
504
505
509
507
504
507
510
508
505
508
509
507
503
507
506
503
502
506
507
505
505
508
507
505
507
510
508
504
506
508
505
502
506
507
506
504
508
508
506
506
510
510
507
508
511
510
509
512
516
514
511
517
520
519
518
521
519
514
510
512
509
503
503
507
506
502
504
506
504
501
502
504
511
528
556
572
563
534
507
492
494
499
504
501
497
497
502
501
498
500
503
502
500
503
505
503
501
505
506
504
504
508
507
505
505
509
509
506
508
511
509
506
509
511
507
504
507
508
505
503
507
508
506
506
510
508
505
505
509
507
502
504
506
505
503
506
507
505
502
506
507
505
505
509
508
502
502
508
509
507
510
513
511
509
514
517
516
513
514
513
508
503
506
504
501
500
503
502
499
500
503
501
496
498
505
521
545
570
571
545
509
493
494
498
497
501
499
495
495
499
499
496
498
501
500
497
499
501
500
498
501
502
500
498
503
503
501
501
505
505
502
503
507
505
502
503
504
502
499
503
504
502
499
505
506
503
502
506
506
502
502
505
504
501
502
505
503
500
503
505
504
502
505
506
505
502
507
508
505
505
510
510
507
509
513
512
510
514
518
516
512
513
511
506
502
505
505
502
500
504
504
501
502
505
504
499
500
515
539
561
576
563
529
496
491
499
502
499
502
501
498
498
502
501
497
499
502
501
498
500
503
501
498
501
503
502
500
504
504
501
500
504
504
500
501
507
504
499
503
507
504
499
502
504
502
500
504
506
505
503
508
506
503
502
506
504
501
502
505
504
501
504
506
505
502
506
508
506
504
508
508
506
506
511
512
509
510
515
516
515
518
522
519
513
513
512
508
504
506
506
502
500
504
504
500
499
503
503
499
508
531
554
568
565
540
506
488
496
504
503
499
501
501
498
497
503
503
499
498
502
502
499
501
505
504
501
505
507
506
505
509
509
507
506
511
511
508
505
507
508
507
508
510
509
506
508
509
509
507
510
512
509
506
509
508
504
503
506
504
501
501
505
505
501
502
504
504
502
506
508
506
503
509
510
507
505
510
511
510
510
516
517
515
517
521
520
515
515
515
511
507
509
509
506
503
507
506
503
501
505
503
498
503
524
547
563
566
547
511
487
490
500
500
496
498
499
496
495
499
499
496
495
500
500
497
498
502
501
498
501
504
503
500
503
505
503
501
506
507
505
504
508
507
504
503
505
504
500
501
504
503
500
504
505
503
501
505
505
502
499
502
502
500
499
502
502
498
499
505
503
500
504
506
506
503
507
509
507
506
511
512
511
510
514
514
512
514
519
518
514
515
516
511
506
508
508
505
501
504
505
501
499
502
502
498
496
504
521
545
568
575
551
513
493
494
498
498
501
501
498
496
500
500
498
498
502
501
499
501
506
505
501
504
505
505
503
505
506
504
502
507
509
507
505
510
511
507
507
512
510
506
508
511
508
504
508
510
507
504
507
508
505
503
506
505
501
501
506
505
502
503
508
509
506
507
509
508
505
508
509
507
505
509
511
508
506
509
511
507
510
516
518
516
514
512
507
504
506
507
505
500
502
505
503
496
500
502
502
500
500
504
523
549
572
568
540
508
493
494
499
501
499
495
493
497
499
494
492
498
498
498
500
506
504
500
500
504
505
501
502
502
501
499
504
506
502
499
502
501
502
504
509
507
502
497
502
500
497
506
509
506
501
504
507
506
503
508
507
501
500
503
503
504
506
504
506
506
506
504
502
503
508
506
506
505
510
511
507
506
515
520
517
514
519
520
518
519
519
506
502
507
507
506
505
507
506
504
502
506
506
503
500
503
505
514
537
561
567
549
521
500
495
499
506
507
503
500
503
504
502
500
505
505
502
502
506
505
502
502
506
504
501
502
505
503
500
503
505
504
501
505
506
504
503
507
506
502
502
504
502
500
503
506
504
503
508
511
508
505
508
510
508
506
509
509
507
506
510
509
505
506
510
509
506
507
510
508
505
509
511
509
509
515
515
512
511
518
520
517
517
519
517
511
509
510
508
504
505
506
504
500
503
504
502
499
502
505
517
541
566
570
546
513
493
491
495
500
502
498
495
499
501
499
496
500
501
498
496
500
500
497
497
501
500
497
498
502
503
500
504
506
504
503
505
506
504
502
507
506
503
501
504
503
501
499
503
504
503
505
507
503
499
501
503
500
498
502
503
500
498
502
500
497
498
502
501
499
501
503
502
501
505
508
507
506
509
509
507
507
513
515
512
510
513
513
508
506
506
503
500
501
504
503
499
500
502
500
497
500
508
526
550
572
567
538
505
493
496
499
501
501
498
496
499
501
499
497
501
501
499
498
502
502
499
499
503
502
500
501
505
504
502
505
508
507
504
503
503
505
506
510
509
504
502
506
506
504
504
508
507
504
505
507
505
500
503
505
503
500
504
506
504
502
506
506
504
505
510
509
506
508
511
509
507
510
515
514
512
516
518
517
516
520
520
515
511
512
509
505
504
507
506
502
503
506
504
501
504
504
502
504
525
550
568
568
550
517
494
494
505
506
500
499
502
500
496
499
502
500
498
502
503
502
500
505
505
502
502
507
507
504
505
509
509
506
508
512
511
507
510
512
509
506
509
509
506
504
509
509
507
508
512
511
508
508
511
509
505
506
509
508
504
507
508
508
506
509
509
506
506
511
512
509
508
510
509
510
515
519
518
515
520
523
522
519
521
519
514
510
511
509
506
505
508
506
504
504
507
505
501
501
505
517
540
566
574
554
519
496
493
497
499
502
500
497
497
501
500
497
497
500
499
496
500
503
501
499
502
504
502
501
506
505
503
503
507
507
505
507
510
509
507
507
508
506
502
506
507
504
501
507
508
505
503
507
506
502
502
506
505
500
501
503
501
500
504
504
504
500
503
505
505
504
507
506
504
503
507
509
507
508
511
509
505
507
512
517
517
515
502
494
504
515
511
502
499
503
505
503
504
507
505
501
500
507
523
546
568
563
532
499
493
498
502
500
499
498
496
497
500
497
495
497
500
499
496
496
499
499
499
494
500
509
507
509
511
509
507
510
510
510
510
509
510
509
507
508
508
503
507
510
509
505
504
497
493
504
512
502
489
483
502
522
516
503
499
499
509
520
521
515
509
510
511
510
509
511
510
504
502
506
505
502
498
505
504
498
505
517
522
519
521
519
512
504
507
509
506
499
494
491
491
490
504
509
501
497
504
518
539
558
568
552
517
496
494
501
494
485
490
494
497
498
496
494
499
507
505
499
502
507
506
502
504
504
500
499
498
493
496
500
503
507
507
505
502
501
505
508
508
508
503
502
495
486
491
507
520
514
504
505
505
504
505
510
507
501
500
507
506
496
493
501
502
501
506
511
512
507
508
510
509
508
514
516
513
511
513
507
511
522
525
521
515
516
516
512
507
508
509
506
504
508
508
506
506
510
509
506
508
524
545
563
573
560
529
501
500
508
509
506
510
512
510
508
512
511
509
508
513
511
508
508
511
509
505
505
508
509
508
511
511
508
507
511
512
509
508
511
510
506
505
508
506
501
503
505
503
502
506
509
508
505
509
511
508
506
510
508
505
504
507
507
502
503
507
506
504
508
510
509
507
510
511
510
510
514
515
512
511
516
518
515
511
511
512
511
511
512
508
503
506
507
505
503
506
507
505
503
506
504
510
531
559
572
560
532
505
493
495
502
502
498
495
498
500
498
496
500
501
500
498
501
501
496
497
502
504
501
502
504
505
503
505
507
504
502
506
508
507
504
509
510
506
504
505
503
503
506
509
508
504
508
510
508
506
508
509
506
503
507
507
503
503
509
507
503
502
505
505
503
507
510
509
506
509
510
509
507
513
513
509
508
515
516
515
515
517
514
509
509
509
507
503
505
507
505
503
506
507
505
502
504
506
517
541
567
576
557
524
500
494
497
503
505
501
497
501
503
502
499
503
504
502
500
504
504
501
502
504
503
500
501
504
504
502
504
505
504
501
507
508
505
504
504
501
501
501
502
500
500
503
506
503
499
500
503
502
499
502
504
503
500
503
503
500
498
503
502
500
502
505
504
502
503
505
504
503
506
509
509
507
510
512
510
508
512
513
515
515
520
517
509
507
508
505
502
504
505
503
501
504
504
501
498
500
502
512
535
561
567
548
521
499
491
497
502
502
499
497
502
503
500
497
499
501
500
499
504
504
503
504
507
504
503
506
510
509
504
505
508
507
505
510
511
507
504
509
510
507
504
508
508
504
503
508
508
504
505
507
505
502
504
505
503
500
504
505
503
501
505
505
503
502
507
506
503
504
508
507
503
505
508
507
504
508
509
507
505
509
511
510
510
515
513
509
506
507
503
499
499
502
499
495
498
499
497
494
496
496
495
504
530
553
562
548
521
491
477
485
497
498
493
495
496
495
493
496
498
496
493
497
497
496
496
502
503
500
500
504
504
501
503
507
505
503
507
509
507
504
507
508
504
502
505
505
501
499
501
500
496
498
504
504
501
502
503
500
495
497
499
499
497
501
502
501
501
505
505
502
503
508
507
504
506
509
508
506
510
513
512
508
513
515
515
514
518
516
512
509
510
508
504
503
505
503
499
501
503
501
498
501
499
498
510
540
566
572
555
526
498
489
498
506
504
498
499
502
500
497
499
501
499
496
500
501
499
498
502
502
500
501
505
505
502
503
507
506
504
507
510
508
505
508
509
507
504
507
506
505
505
509
509
507
506
508
507
504
507
509
507
503
506
506
505
503
508
509
505
503
507
508
506
506
509
508
505
507
510
509
507
510
513
512
509
514
516
516
514
519
519
514
510
511
508
503
502
505
503
500
502
506
505
501
502
503
502
509
536
561
572
559
533
503
490
495
505
504
499
499
502
502
499
501
504
501
498
503
506
503
500
504
504
501
502
506
506
503
504
508
509
506
508
511
510
507
511
512
509
505
508
508
505
503
508
509
507
508
512
510
507
508
511
509
505
508
510
507
504
508
510
508
506
511
512
510
509
514
514
511
511
514
513
509
512
516
515
512
515
517
517
516
523
523
519
515
517
514
508
506
509
506
502
502
505
504
499
501
502
499
497
509
530
552
565
562
535
501
487
497
502
499
497
499
497
492
494
499
498
496
500
501
500
497
501
502
500
499
504
504
502
503
507
507
503
507
511
509
505
508
511
508
504
507
507
503
503
508
509
506
505
509
508
504
505
509
507
503
505
508
504
500
503
503
503
500
504
508
507
506
509
508
505
506
510
509
506
508
511
510
508
513
516
515
512
517
520
519
518
522
520
515
510
511
510
506
507
510
507
503
505
508
506
503
505
506
509
525
553
572
570
544
514
494
491
497
503
501
497
498
501
499
497
501
502
501
499
503
504
502
500
503
504
503
504
508
507
504
505
509
508
506
508
511
509
506
508
509
506
504
507
507
504
502
506
506
503
503
507
507
503
505
507
505
501
503
505
502
499
503
505
502
500
504
505
502
502
507
507
504
504
508
507
504
507
509
509
507
511
513
511
509
514
516
514
512
514
511
505
503
506
505
501
501
504
502
498
502
504
500
496
499
508
528
553
574
567
536
502
491
495
498
500
502
499
494
497
499
498
495
498
500
498
497
501
502
500
500
505
504
501
502
506
506
504
506
511
510
508
511
513
512
508
511
512
509
505
509
509
508
508
512
511
508
509
512
510
505
507
509
508
504
507
507
502
501
509
510
507
506
509
509
505
505
508
507
504
506
509
507
503
507
510
509
507
512
514
512
512
517
519
516
515
516
512
505
505
507
505
501
502
505
502
498
502
505
502
499
504
514
534
557
574
562
530
500
492
497
500
502
502
500
497
500
502
501
499
502
503
500
498
502
503
501
500
505
504
501
502
506
506
503
506
508
507
505
510
513
510
507
510
509
506
505
509
509
506
506
510
510
507
508
511
509
506
508
509
507
504
508
507
504
503
508
508
505
505
509
508
505
507
511
510
508
510
512
511
509
512
513
511
511
516
516
514
515
520
521
518
518
518
514
509
507
508
506
502
504
506
504
502
505
505
501
498
502
510
526
551
572
567
536
504
492
495
499
502
502
499
496
499
500
498
497
500
501
500
499
502
502
499
501
505
503
501
503
506
506
504
507
508
507
505
509
509
507
505
509
509
506
506
509
508
505
506
509
508
506
508
508
505
501
505
506
503
500
504
504
501
500
503
503
500
501
507
506
504
506
508
506
502
508
511
509
506
510
510
507
506
512
513
509
509
516
518
514
514
516
513
507
506
505
503
500
502
502
499
497
500
499
496
495
500
501
513
538
564
569
545
513
490
486
491
497
497
494
491
495
496
493
492
496
495
492
492
497
497
495
497
500
499
496
499
501
500
499
503
504
503
503
507
508
504
503
507
506
503
503
507
505
502
504
507
506
502
506
507
505
501
504
505
502
500
503
503
500
500
504
504
501
500
502
503
502
506
508
506
503
508
509
507
505
509
509
508
508
513
513
509
510
516
516
515
517
518
515
510
511
510
505
502
505
506
503
501
506
505
503
502
504
505
516
543
568
573
551
520
496
491
496
504
504
499
497
501
501
498
498
502
502
500
501
504
503
500
503
505
504
501
505
506
504
503
508
510
508
506
509
510
507
507
510
509
506
507
510
510
506
508
509
508
506
508
508
507
507
512
511
508
506
508
508
506
507
510
509
506
508
509
507
503
507
508
508
506
509
510
507
507
512
514
512
513
517
515
512
516
521
521
518
520
519
515
508
508
509
506
503
506
505
502
502
507
507
503
503
506
514
530
556
574
564
534
506
493
496
499
504
503
499
497
501
501
500
500
503
503
501
503
507
505
502
505
507
506
503
508
509
507
505
510
511
508
508
511
510
507
507
509
507
504
507
508
507
504
507
508
507
504
507
507
505
503
507
507
504
503
506
505
501
503
507
505
502
506
508
506
503
507
509
508
505
509
508
506
505
510
509
507
509
512
511
509
514
518
518
515
516
515
509
504
506
504
500
498
501
500
498
498
502
500
496
497
502
516
537
562
569
547
511
490
489
495
496
499
498
494
493
498
498
495
497
501
500
496
499
501
499
497
499
501
499
498
502
503
501
500
505
506
505
505
509
507
504
506
508
506
503
505
507
505
502
506
506
502
499
504
504
501
500
503
502
499
500
504
503
499
502
505
504
501
505
506
504
502
507
507
504
502
507
507
504
504
508
508
506
509
513
511
510
516
519
518
514
515
514
508
504
507
507
503
502
506
505
502
503
506
504
499
502
514
535
558
576
567
534
500
492
498
501
500
502
500
498
499
502
500
498
500
503
502
498
501
502
500
498
502
503
501
500
504
505
502
501
506
505
503
505
509
507
504
506
507
505
502
505
506
504
502
506
506
503
502
505
503
497
496
502
503
502
503
505
503
500
504
506
503
501
505
507
504
502
507
508
505
505
509
507
505
507
511
512
510
513
515
514
514
518
519
516
512
514
512
507
504
507
505
501
501
504
502
499
501
503
500
498
511
535
556
567
562
533
499
486
496
502
501
499
502
501
499
500
502
500
497
501
504
502
499
503
505
503
502
506
506
504
504
508
508
506
507
510
509
507
511
515
513
509
512
513
510
508
511
512
509
505
507
507
505
508
513
511
507
508
511
509
506
508
510
508
506
509
511
509
507
510
511
509
508
512
511
508
508
513
513
511
514
518
516
514
518
522
521
519
522
520
515
510
511
509
504
502
505
503
500
502
505
505
502
503
504
508
524
553
573
568
539
510
492
493
500
504
501
497
498
502
501
497
499
503
502
500
503
505
503
501
505
506
505
503
507
506
502
503
507
507
505
507
510
508
505
509
510
509
506
508
509
506
505
508
508
506
505
510
509
505
506
509
508
505
506
508
505
502
506
508
505
503
507
508
506
505
510
509
507
508
512
511
508
510
513
513
511
515
517
515
515
520
523
521
518
521
518
512
509
512
509
505
505
509
507
504
505
508
506
501
505
517
538
561
580
571
539
506
499
504
506
506
507
505
502
504
507
506
502
506
509
508
505
509
510
507
505
510
511
509
509
514
514
511
512
516
514
511
514
517
515
511
514
515
513
509
512
511
509
508
513
512
508
508
512
510
507
508
511
509
505
508
510
508
505
509
510
508
507
511
511
508
508
512
511
508
509
513
511
509
513
516
515
513
516
518
518
516
520
520
515
511
513
510
506
504
507
505
501
502
505
504
500
503
502
499
503
528
555
572
568
546
511
489
492
503
504
498
497
500
498
495
498
501
499
497
501
502
499
497
501
503
500
499
503
502
499
500
505
504
502
504
507
506
502
505
506
504
501
505
506
503
501
505
504
502
502
506
505
502
502
504
502
499
501
503
501
498
501
502
500
497
501
501
498
497
502
502
500
500
504
503
500
501
505
505
502
505
508
507
506
512
514
511
509
511
508
502
499
501
499
494
495
498
497
494
497
498
495
490
493
504
526
554
578
570
533
494
484
490
492
492
494
492
488
490
493
493
490
495
497
495
493
497
498
497
496
500
499
497
497
502
502
499
501
505
504
501
504
506
503
501
504
505
503
501
505
506
504
503
508
508
505
504
507
505
502
503
504
502
500
503
505
502
499
503
504
502
500
503
503
501
502
507
507
504
505
508
507
504
508
511
510
508
511
513
512
512
518
518
515
512
514
511
506
506
509
507
503
504
506
505
502
505
505
502
497
506
528
557
580
585
557
514
492
497
502
500
499
501
499
496
499
501
500
498
502
503
501
500
504
504
502
502
506
506
503
504
508
507
505
508
510
509
507
511
514
512
509
512
512
509
507
511
511
508
508
512
511
508
510
512
510
507
509
510
508
505
508
509
506
505
509
510
507
507
511
510
506
507
510
509
507
510
512
510
506
510
513
512
511
514
515
513
513
518
519
516
515
517
513
507
508
510
507
502
504
506
503
501
505
506
502
498
506
527
553
576
582
556
515
492
496
502
503
503
504
501
499
502
504
502
501
505
506
504
503
508
506
503
503
507
506
503
506
510
509
507
510
512
510
508
512
513
510
508
511
511
507
505
508
506
504
507
510
509
505
508
510
508
505
507
507
505
503
506
505
503
502
506
505
502
502
506
505
502
504
508
507
503
506
507
504
501
506
507
506
505
510
509
507
508
514
514
511
510
510
505
500
502
505
502
498
501
502
500
498
502
502
499
496
498
502
516
545
574
579
553
516
493
489
493
500
499
495
493
497
497
495
493
498
499
496
496
499
500
497
499
502
501
498
501
503
501
499
503
504
503
502
506
506
504
503
508
508
505
504
507
505
502
505
508
506
503
505
506
504
502
507
507
503
501
505
505
502
502
506
505
502
504
507
506
503
505
508
507
505
508
510
507
505
509
509
507
509
514
514
511
512
517
519
517
519
520
516
510
511
511
507
504
507
506
503
502
506
506
503
503
506
502
502
524
559
583
582
558
519
493
491
504
508
504
500
504
504
502
501
505
505
502
503
507
507
504
506
508
507
504
508
510
509
507
512
514
512
510
516
516
512
511
516
516
512
513
516
513
509
513
515
512
510
514
515
512
509
512
512
508
506
509
508
504
505
509
507
505
508
510
508
505
508
510
510
508
513
513
510
508
513
512
509
509
514
515
513
515
518
517
517
521
524
521
518
519
517
511
508
510
509
505
505
509
507
503
504
508
505
500
504
523
550
574
590
574
534
498
493
500
501
499
501
499
496
497
501
500
497
499
502
501
498
501
502
500
498
503
505
503
503
507
507
505
505
509
508
504
505
508
507
504
504
507
505
502
505
506
506
504
507
507
504
503
506
506
502
501
504
502
500
501
504
502
500
503
505
502
499
504
504
502
501
504
503
500
500
505
505
502
504
508
509
507
510
513
511
509
514
517
516
511
513
512
507
504
506
504
499
499
502
501
499
500
502
500
495
497
507
529
556
579
571
536
497
486
490
493
494
498
496
492
492
496
497
495
498
500
498
495
498
500
498
496
499
499
498
500
505
505
502
504
509
508
505
507
510
509
505
508
510
508
505
508
508
506
505
509
508
504
503
508
508
504
504
508
507
503
506
508
506
503
507
508
506
503
508
509
506
505
508
508
506
506
510
509
506
508
511
511
509
512
514
513
513
517
520
517
516
517
514
508
505
507
504
500
501
505
502
498
499
502
499
494
500
516
540
566
582
565
525
494
491
499
501
501
503
501
496
496
499
498
496
501
504
502
500
503
503
500
500
505
506
504
504
508
509
507
508
511
511
509
511
514
512
508
512
512
508
504
508
508
504
502
509
510
507
507
510
509
505
507
509
508
505
507
508
506
504
506
506
503
503
509
509
506
506
510
510
507
510
513
512
508
510
514
514
512
515
516
516
516
522
524
521
518
520
516
509
508
511
508
505
507
508
506
503
506
506
503
498
508
530
556
579
585
556
511
490
496
502
502
502
503
500
497
500
503
502
499
502
504
502
501
505
506
503
502
506
506
503
504
508
507
505
507
510
509
506
510
511
509
507
510
509
506
504
508
508
506
507
511
509
506
508
510
508
505
508
509
507
504
508
508
505
503
508
507
505
504
508
508
507
505
505
507
507
512
513
508
505
512
517
517
513
516
517
516
516
521
518
512
509
510
508
502
498
500
502
501
505
505
502
499
501
499
495
503
534
565
582
573
544
506
487
492
502
502
498
499
499
498
496
501
502
501
499
503
504
501
501
506
505
502
503
506
504
501
504
509
508
506
509
511
510
508
511
512
509
506
509
508
505
505
509
508
505
506
509
507
504
507
507
502
501
507
507
502
499
505
507
503
501
507
506
502
503
507
507
504
506
508
505
502
506
507
506
507
510
510
511
513
518
518
514
513
515
510
505
505
508
505
500
502
503
502
500
502
501
496
493
500
516
543
573
585
561
519
491
489
497
499
500
501
498
495
497
499
498
495
498
501
500
499
503
503
499
499
502
502
500
501
504
503
501
505
509
508
505
509
510
506
503
508
507
505
504
507
506
503
504
508
508
503
505
508
505
502
505
506
503
500
503
503
501
501
504
503
501
503
507
504
503
505
508
505
502
507
510
509
505
509
509
509
512
519
519
516
514
515
512
506
504
506
504
500
501
503
500
495
498
501
500
495
498
506
526
554
580
576
541
503
489
493
496
498
500
498
496
500
502
498
495
500
502
500
499
504
504
501
501
506
506
503
505
508
508
506
509
512
509
507
512
512
509
507
511
510
507
505
506
506
506
507
510
507
503
506
511
508
503
507
510
508
506
509
510
507
505
509
509
505
505
510
508
503
503
507
507
505
508
510
509
505
509
512
510
508
514
516
515
515
519
519
514
513
514
510
504
504
506
504
501
504
505
502
498
500
500
498
500
521
549
573
581
563
524
492
489
500
502
498
499
500
497
494
498
500
500
498
502
503
501
500
504
503
498
500
506
505
501
502
506
507
505
506
508
507
505
509
511
508
504
507
507
505
505
510
509
504
505
508
506
503
505
507
505
502
504
506
506
503
506
506
503
502
506
506
503
503
506
504
500
504
508
506
502
506
509
508
505
511
514
511
508
515
516
515
516
521
520
516
514
514
508
502
504
507
506
500
502
504
503
501
504
503
498
500
522
552
576
583
563
522
492
491
501
502
498
497
498
498
497
501
501
499
499
502
502
499
499
504
504
501
503
507
506
503
506
508
507
505
506
505
505
506
511
511
509
508
513
512
509
509
511
509
506
509
511
509
506
508
508
505
505
510
510
507
505
509
509
506
506
510
509
506
506
509
507
503
505
506
506
505
509
509
507
508
513
514
511
510
515
516
515
517
521
518
511
510
513
509
502
504
507
506
502
505
504
500
498
502
500
494
497
522
551
573
578
555
516
489
492
501
501
498
502
501
498
496
499
499
497
497
501
502
500
502
506
505
500
502
508
508
504
505
507
506
504
509
511
508
506
510
510
506
504
506
506
504
506
510
509
505
509
512
510
507
510
510
506
505
509
509
507
506
509
508
505
506
508
506
503
506
508
505
503
508
511
509
507
510
510
507
506
512
512
509
509
514
515
514
517
520
516
510
510
509
504
502
506
505
503
500
502
502
500
501
502
499
499
517
550
573
573
550
514
488
488
502
506
501
496
500
500
498
497
501
500
497
495
498
498
496
497
500
499
498
501
503
502
499
502
504
503
501
505
505
502
503
507
506
503
505
506
504
501
505
506
504
501
504
506
504
501
504
504
501
500
504
502
499
501
506
504
501
502
504
503
501
504
507
505
503
507
508
505
503
508
509
507
508
512
513
510
512
518
519
516
519
519
514
507
508
506
503
498
503
505
504
502
505
504
501
500
500
499
513
544
575
582
557
522
496
492
497
503
503
499
496
500
501
498
498
502
501
497
499
503
503
500
503
505
503
500
504
507
507
505
509
510
508
507
512
511
508
509
513
510
507
509
511
509
506
509
511
509
506
509
510
507
505
509
507
504
504
507
507
503
504
506
506
502
505
507
505
501
506
508
506
504
509
510
508
507
511
512
510
513
516
515
512
516
521
521
517
519
518
513
508
510
509
505
504
507
506
503
503
507
505
501
500
507
523
549
576
583
558
517
495
493
498
499
502
500
496
496
499
499
497
497
501
500
497
500
504
502
498
502
504
502
500
504
504
501
501
506
506
504
505
510
509
505
506
508
507
504
507
508
507
504
508
509
507
505
508
507
503
503
507
506
503
504
507
506
502
504
506
505
503
507
509
507
505
509
510
508
507
511
510
507
509
514
513
510
513
517
518
516
519
520
516
511
513
511
507
504
507
507
504
504
508
507
504
504
505
503
509
534
564
582
574
547
512
493
495
505
507
503
500
504
503
500
500
504
503
500
502
505
504
501
504
506
504
502
506
508
507
506
511
512
509
509
513
513
510
511
513
511
507
509
510
508
505
509
510
508
506
510
510
507
506
510
509
506
506
509
508
504
507
510
508
505
508
510
508
506
510
511
509
508
513
513
510
512
518
517
513
515
519
519
517
520
522
518
512
513
511
507
504
507
506
503
502
506
504
501
501
503
499
500
522
552
573
574
553
518
492
488
499
502
499
497
501
500
498
498
501
500
497
499
503
501
498
501
503
501
497
501
502
500
499
504
505
503
503
508
508
506
507
510
508
504
505
507
505
502
505
507
505
503
508
509
505
504
507
507
504
504
507
506
502
504
508
507
504
507
508
506
504
508
509
507
506
510
510
508
509
514
515
512
513
516
517
516
520
523
521
516
518
516
511
507
509
508
505
503
507
506
503
503
506
503
498
503
523
549
570
577
556
517
490
493
501
502
499
502
501
498
498
501
500
498
500
503
502
500
503
505
504
500
504
506
504
503
507
508
506
506
511
511
508
508
511
510
507
508
510
508
504
507
508
505
504
508
509
506
504
508
507
503
503
506
505
501
503
507
506
503
506
508
506
504
507
509
507
506
511
511
508
507
510
510
508
510
514
513
511
514
518
519
516
517
515
510
505
506
505
502
499
503
502
500
499
503
502
498
498
499
503
520
551
576
577
548
513
491
490
495
502
500
496
495
500
499
496
497
500
499
496
499
501
500
498
502
504
502
500
504
505
503
501
505
506
504
505
509
508
506
508
511
509
504
506
508
506
503
508
509
508
505
508
508
505
505
508
508
505
504
507
505
502
505
508
507
505
507
509
507
506
510
510
507
506
510
510
509
508
512
512
510
511
514
513
512
516
519
517
512
513
510
506
501
504
503
500
500
504
503
500
501
504
502
497
501
518
543
567
581
564
527
495
492
500
502
500
501
499
495
496
500
500
497
499
502
501
499
502
505
503
501
504
505
503
502
507
507
505
505
510
510
508
509
511
509
506
509
512
509
506
509
509
507
505
509
509
506
505
509
508
505
504
507
506
502
504
507
506
503
505
507
505
503
507
508
506
505
509
510
507
507
511
510
508
511
516
514
512
515
519
518
516
519
519
514
509
510
509
506
503
507
506
502
501
505
503
499
498
500
505
522
552
575
573
547
515
494
491
498
504
503
498
497
500
500
497
499
502
501
498
500
503
502
499
501
502
500
498
503
504
502
502
507
507
503
503
508
507
504
506
508
506
503
506
507
504
502
505
505
504
506
509
507
503
503
507
506
500
499
504
502
498
502
504
503
501
504
505
503
501
506
507
504
504
508
508
505
506
510
509
507
510
514
513
512
517
518
516
511
512
510
505
503
505
504
501
502
505
504
501
502
504
500
496
505
527
552
570
574
548
510
487
492
499
499
497
500
498
495
495
498
497
494
497
500
498
496
499
501
498
496
501
503
501
501
506
507
504
505
509
508
505
508
511
507
501
505
509
507
503
506
507
506
505
509
509
506
506
509
508
505
505
508
506
502
504
506
505
502
505
506
504
502
506
507
503
502
506
506
504
504
508
508
506
509
513
513
510
515
517
517
515
518
517
512
507
508
507
503
502
505
504
501
502
505
503
500
501
502
510
530
561
580
570
537
506
493
495
501
505
503
499
499
503
502
499
501
504
503
500
504
506
503
500
505
506
504
503
508
509
506
505
510
509
506
507
510
510
508
510
513
511
507
509
511
510
507
512
513
510
508
512
511
508
508
513
511
506
507
510
508
504
506
508
507
505
508
508
506
507
511
511
509
509
513
513
511
514
518
517
514
518
523
523
521
525
524
519
514
515
513
509
508
510
509
505
505
509
508
504
506
507
506
514
543
572
585
570
540
507
494
499
507
506
501
500
503
503
499
501
503
501
498
501
503
502
499
503
505
503
502
506
507
504
503
508
508
505
507
511
510
508
510
513
511
507
509
509
507
505
509
510
507
505
509
509
505
505
508
506
503
503
506
504
501
504
506
504
502
506
507
505
504
508
508
505
505
509
509
507
509
514
513
509
513
516
516
514
516
515
511
506
508
507
502
500
503
503
500
500
504
502
499
500
501
502
515
545
571
576
553
522
496
491
497
503
501
497
495
500
500
498
499
502
501
497
500
503
501
498
502
504
503
501
506
507
504
503
507
508
505
506
510
509
506
508
510
508
504
506
507
506
503
507
508
506
504
507
507
503
503
508
507
503
505
507
505
502
505
508
507
504
507
508
507
504
508
509
507
506
510
511
510
512
516
514
512
516
520
520
516
518
517
512
507
508
508
504
501
504
504
501
500
504
503
499
498
501
511
533
562
579
566
530
501
492
496
499
503
501
498
496
500
500
498
499
502
501
499
501
504
503
500
503
505
502
500
505
506
504
503
509
509
507
507
511
510
507
507
510
508
504
506
508
505
502
506
507
505
503
507
508
505
505
508
506
503
503
507
506
503
505
508
506
504
508
510
508
506
510
510
507
507
511
513
511
511
515
515
512
515
520
519
515
518
518
514
509
510
509
505
502
506
505
502
502
505
505
501
500
503
513
535
565
582
567
529
500
494
500
501
504
503
498
496
501
502
498
497
502
502
499
500
503
501
498
501
503
502
499
503
505
504
503
509
510
508
509
513
513
508
509
511
508
504
507
511
509
507
511
512
509
506
511
511
508
506
511
510
507
507
510
509
505
507
510
508
505
508
511
510
508
511
512
509
508
512
513
511
512
517
516
513
517
523
523
519
519
519
514
509
510
510
506
502
506
506
502
501
505
504
499
498
501
512
536
566
582
565
528
498
490
495
498
501
499
496
493
497
496
494
494
498
499
496
497
501
500
497
500
502
499
497
501
503
501
498
502
502
500
500
504
504
502
503
507
504
500
502
504
502
499
503
504
502
500
505
504
501
499
503
502
498
499
503
501
498
499
502
501
498
501
503
502
500
504
506
504
502
506
507
504
504
509
510
507
509
515
515
514
517
518
514
508
508
507
504
501
504
504
501
499
503
503
500
500
503
501
507
533
564
580
569
541
508
491
494
503
504
500
497
501
501
499
499
503
502
500
502
506
505
502
504
507
506
503
507
509
507
505
510
511
507
506
511
511
508
508
511
510
507
509
510
508
505
509
510
509
507
511
511
508
506
509
509
506
506
510
508
506
507
510
509
505
508
509
507
504
507
509
506
504
508
509
507
508
513
514
512
514
518
518
516
517
517
514
508
508
508
505
503
507
508
505
503
507
506
503
501
503
510
529
557
578
571
541
509
494
495
499
503
502
498
495
499
500
498
498
502
502
499
500
503
502
499
501
504
504
501
504
507
505
503
507
509
508
507
511
511
508
507
511
509
505
506
508
506
504
507
510
508
504
507
508
505
503
507
506
502
501
504
504
501
502
505
504
501
503
506
505
502
506
507
506
505
510
512
510
509
514
515
514
515
519
518
513
512
512
508
504
505
506
504
501
505
505
502
500
504
503
499
505
530
557
573
569
546
510
491
496
506
505
501
503
505
503
500
504
504
502
501
505
504
501
501
506
505
502
504
508
506
503
506
508
506
504
509
510
507
504
508
508
505
504
507
506
503
504
507
506
503
505
507
506
502
505
505
503
501
504
504
502
501
506
506
503
503
507
506
503
505
510
508
505
508
511
510
509
513
514
512
511
517
518
516
514
515
512
506
505
507
504
500
503
504
502
499
503
503
499
495
499
511
532
559
579
567
531
497
490
495
498
500
500
497
493
496
497
495
493
498
499
496
495
499
499
496
496
500
499
496
499
502
501
498
502
504
502
500
504
506
503
500
504
504
501
500
504
504
500
501
505
503
500
502
505
503
501
505
506
504
501
504
505
502
500
505
505
503
503
507
506
504
506
509
508
507
511
514
512
509
514
517
516
516
520
518
513
510
511
508
503
503
505
503
499
501
504
502
499
502
502
499
507
536
565
579
568
540
505
491
496
504
502
496
497
500
499
496
500
502
500
498
502
503
501
499
503
504
501
501
506
506
503
504
509
508
505
508
511
509
506
510
512
509
507
511
511
508
507
511
511
509
510
514
512
508
509
511
509
506
509
510
507
505
509
511
508
506
511
511
509
509
514
513
509
511
515
516
514
517
520
518
516
522
523
520
516
518
516
510
506
509
508
504
504
507
506
502
504
507
505
500
505
523
548
570
581
561
523
496
499
505
504
502
504
502
498
499
503
502
499
501
504
502
499
503
505
503
501
506
507
505
504
508
508
506
507
511
510
507
509
511
509
506
509
510
507
504
508
509
507
506
511
510
507
507
510
508
504
506
508
506
503
506
508
506
503
506
507
505
503
507
507
504
503
508
508
507
509
514
513
510
514
518
517
515
519
519
514
509
511
510
505
503
507
506
502
502
506
505
502
502
504
505
516
544
569
574
552
522
497
491
496
503
502
497
496
499
498
495
497
501
499
496
498
501
499
496
500
502
500
498
503
503
501
500
504
505
503
503
508
506
503
504
507
505
501
503
504
502
499
503
504
502
500
504
504
501
500
504
503
500
500
503
502
499
501
503
501
499
502
503
501
499
503
504
500
498
503
504
502
502
506
506
503
507
511
511
508
509
509
505
499
501
500
496
493
497
495
492
491
495
494
490
489
492
503
524
554
571
556
520
490
481
485
487
491
489
485
485
489
488
486
487
492
492
489
490
493
491
489
494
495
494
492
496
496
494
493
498
499
497
498
502
502
497
498
500
498
494
496
498
496
493
497
498
496
494
498
498
494
493
497
496
493
493
496
495
492
493
496
495
492
495
497
496
494
498
498
496
495
500
500
499
500
503
502
500
504
508
508
504
505
505
500
495
497
496
493
490
494
493
490
489
493
492
488
487
496
513
538
563
568
543
504
484
485
490
489
492
492
489
488
492
492
489
489
493
493
490
492
495
494
492
494
496
494
492
496
498
496
494
498
499
497
497
501
501
498
499
501
500
496
498
501
500
497
502
503
501
498
502
502
498
496
500
500
497
498
502
500
497
500
502
500
497
501
503
502
499
501
503
502
501
506
508
506
505
509
509
507
510
514
512
507
507
506
502
498
500
500
497
495
499
500
498
496
500
498
493
496
517
543
564
571
552
514
486
487
496
498
494
495
495
493
492
496
496
493
493
498
497
495
497
501
500
497
500
502
500
498
503
504
502
501
505
506
503
503
507
506
503
502
505
504
501
503
505
504
501
505
506
503
501
504
504
501
499
503
502
500
499
503
501
498
499
503
501
498
501
503
502
499
503
504
503
502
508
508
504
504
510
511
509
510
513
509
504
504
504
502
498
500
501
498
496
500
501
500
499
502
503
512
536
565
574
556
524
498
489
494
500
501
498
494
497
499
497
494
499
500
498
498
502
501
498
499
503
502
499
502
504
503
501
506
508
506
504
508
508
505
505
508
506
503
504
507
506
503
506
510
509
506
509
511
508
505
509
510
508
506
510
511
508
508
512
511
508
508
512
511
508
511
513
512
509
513
516
515
513
517
518
518
519
525
525
521
518
520
516
509
510
511
509
505
508
509
507
504
507
507
503
501
513
535
561
579
578
548
510
495
503
507
506
507
508
506
503
507
508
506
504
508
508
506
505
509
509
506
507
511
510
507
509
513
512
510
514
517
515
513
517
518
515
512
515
515
511
510
513
513
510
511
515
513
509
511
513
511
508
511
513
510
507
510
510
507
507
511
511
508
509
512
511
509
511
515
514
511
516
519
517
515
518
520
520
520
525
524
520
516
517
514
508
509
512
510
506
508
510
508
505
507
507
503
507
530
558
578
577
555
518
494
496
507
508
503
503
505
504
501
503
505
503
500
505
506
504
503
507
507
505
505
509
508
505
507
511
510
507
509
512
511
508
512
513
511
508
512
512
509
509
513
514
510
510
513
512
508
510
512
510
507
510
511
508
506
510
510
506
506
510
510
507
508
512
511
508
510
513
512
509
514
516
514
511
516
519
519
518
521
519
514
510
511
507
504
504
507
505
501
503
506
504
501
504
504
506
523
556
580
579
553
521
498
494
502
507
504
499
500
502
501
498
502
503
501
498
502
504
502
500
505
505
503
503
508
508
505
507
511
511
509
511
514
513
509
512
513
510
508
512
513
510
508
513
512
509
510
513
512
509
510
512
509
505
508
509
508
506
509
510
508
506
511
511
508
507
510
510
507
509
513
513
512
515
517
516
515
520
522
520
517
519
517
511
508
510
509
505
505
508
507
503
505
507
504
499
502
514
536
561
581
571
537
502
494
500
503
502
505
503
499
499
503
502
498
501
502
501
498
503
504
502
500
504
504
502
502
507
508
505
505
509
508
506
507
510
508
505
508
508
505
502
506
506
504
504
508
509
506
505
509
507
504
505
508
506
503
506
508
506
503
506
507
505
503
507
508
506
506
509
508
505
507
511
511
508
510
514
514
514
518
520
517
512
513
510
506
503
507
506
503
502
505
503
500
502
503
500
499
516
542
566
574
562
529
497
488
499
503
499
497
500
498
495
496
500
499
497
499
501
499
497
501
502
500
498
503
503
501
500
506
506
504
505
509
509
506
508
511
509
505
507
507
506
503
507
508
506
504
508
508
505
505
509
509
505
505
508
506
503
505
508
506
503
506
508
506
504
509
510
507
507
510
509
506
508
514
513
511
513
516
516
515
520
522
519
514
516
514
509
506
509
507
504
502
506
506
503
504
506
503
501
517
545
568
577
565
531
498
489
500
505
501
498
501
500
497
497
502
501
498
499
503
502
499
502
503
501
500
504
505
503
501
505
506
503
503
507
507
503
504
508
506
503
505
506
504
501
505
507
505
503
508
509
506
506
509
507
503
503
506
504
501
503
506
504
501
504
506
506
503
506
507
504
503
507
507
505
505
511
512
509
511
514
514
513
516
519
516
511
511
509
505
501
504
504
501
500
503
502
499
500
503
501
498
512
539
565
577
567
537
503
490
499
504
501
498
501
501
499
500
504
504
500
501
505
505
502
504
507
505
503
506
507
506
505
510
510
508
508
513
512
509
509
513
511
508
509
511
510
507
510
512
510
508
512
513
510
509
513
512
508
507
509
508
505
506
509
507
504
507
509
508
505
509
511
509
507
511
511
509
509
515
515
512
512
518
519
518
520
523
519
514
514
513
508
504
508
507
504
502
506
506
503
503
506
503
505
526
556
576
572
549
516
493
492
502
505
501
497
501
501
498
497
501
501
498
499
502
501
498
500
503
501
498
502
505
504
502
506
507
504
504
508
508
507
507
511
510
506
507
509
506
503
506
509
508
506
509
511
508
507
510
510
507
506
510
509
505
505
508
506
502
504
507
506
504
507
508
507
505
509
510
508
509
515
514
511
513
518
519
517
519
520
517
511
512
512
508
505
508
508
505
502
506
506
504
501
504
508
524
552
576
575
547
515
495
494
498
504
503
499
496
500
501
499
497
501
500
498
499
503
502
500
502
505
503
500
505
508
506
503
507
508
506
504
509
509
507
506
510
508
504
504
507
507
505
508
510
507
504
508
508
507
504
508
508
504
503
507
507
504
505
508
507
503
505
508
507
504
507
509
506
504
509
510
508
509
514
514
511
511
517
518
515
516
518
514
508
508
508
505
502
505
506
503
501
504
504
501
499
501
503
516
542
570
576
552
519
495
491
496
502
502
499
495
499
500
497
496
501
501
498
498
503
502
500
501
505
505
502
505
506
503
501
505
507
504
502
506
507
505
503
507
506
502
501
505
504
501
504
507
506
503
507
508
506
503
506
506
503
501
505
506
503
503
507
507
503
504
508
507
504
507
510
507
505
509
510
508
507
513
514
512
511
516
517
515
516
520
518
512
511
510
507
502
504
506
504
501
504
504
502
500
502
500
502
521
551
573
570
545
511
488
487
498
501
497
493
496
497
495
495
498
498
496
495
499
499
495
496
500
500
497
500
503
502
499
503
506
505
503
507
508
506
505
508
507
503
503
506
505
502
503
505
505
502
505
507
505
501
504
505
503
500
504
504
501
500
504
503
501
502
506
506
503
505
507
507
505
508
511
509
506
511
512
510
510
514
515
514
516
522
521
516
514
514
509
504
506
507
505
502
505
506
503
502
505
503
499
505
530
558
576
573
548
511
491
497
505
504
499
501
501
499
497
501
502
499
499
504
503
499
500
504
504
501
502
506
506
502
505
507
506
504
508
510
508
507
510
510
506
505
508
507
504
506
510
510
508
509
511
509
506
508
509
506
503
507
506
503
502
506
506
503
503
507
506
504
506
509
507
505
508
510
508
506
510
512
511
509
514
514
514
515
520
518
514
514
515
510
506
506
507
504
501
504
505
502
500
504
503
500
499
515
540
564
577
566
532
498
491
501
504
500
501
501
499
497
501
503
500
499
504
503
501
501
504
504
501
503
506
506
503
506
508
506
504
508
511
510
508
512
513
510
509
513
511
507
507
511
510
507
510
514
513
509
511
511
510
507
510
510
507
505
509
509
506
507
511
510
506
508
511
509
507
510
512
511
508
513
515
513
511
516
519
519
520
525
523
519
518
518
514
508
508
509
507
504
506
507
505
502
505
504
501
505
530
557
574
571
549
513
490
495
505
505
500
500
502
500
498
502
503
501
499
504
505
502
501
506
506
503
503
508
507
505
507
509
508
506
510
512
509
506
509
509
506
505
508
507
504
504
509
508
505
506
510
509
506
508
509
507
504
507
507
505
503
507
507
505
505
509
509
506
507
512
511
508
511
514
513
508
511
514
514
512
516
517
515
515
521
522
518
517
518
514
508
507
509
507
503
506
506
504
501
504
504
501
497
505
524
548
570
576
550
511
489
493
500
499
500
501
498
495
499
501
499
497
502
502
500
498
502
501
498
499
503
502
500
502
506
505
503
505
507
506
503
507
508
506
503
506
505
501
499
503
504
503
504
507
506
504
506
509
506
503
506
507
504
501
505
506
503
502
506
507
504
505
508
508
505
507
510
508
505
508
509
507
504
508
511
510
508
512
513
512
513
517
515
510
509
511
507
502
503
505
503
499
503
503
501
498
501
500
497
505
532
559
576
569
541
505
486
492
501
500
496
498
499
497
494
498
499
496
495
500
500
497
497
501
502
499
502
505
504
501
503
506
505
504
507
509
507
505
509
510
507
505
509
508
505
505
509
509
507
509
512
509
506
508
510
508
505
508
509
507
505
509
509
506
506
511
510
506
507
511
510
507
510
513
511
508
511
513
513
512
517
517
514
515
521
522
520
519
521
518
512
511
512
509
505
507
508
507
504
507
508
505
501
504
513
534
562
584
576
542
507
496
499
501
504
503
500
497
500
501
500
499
504
504
501
500
505
505
503
504
508
507
503
506
508
507
504
507
509
508
505
508
509
506
505
509
508
505
504
508
507
504
506
510
509
506
509
510
508
505
508
509
506
504
508
507
504
502
507
507
504
506
509
509
506
507
509
507
505
508
510
508
507
512
514
511
510
516
517
515
515
518
515
510
508
508
504
500
502
503
501
498
502
503
501
499
501
500
502
521
552
573
570
545
514
491
488
497
502
499
495
497
500
499
496
500
500
498
497
502
501
499
499
503
502
499
501
505
504
502
505
507
506
503
507
509
506
503
507
506
503
501
505
504
501
501
505
505
502
505
508
507
503
505
506
504
501
505
505
502
502
506
506
504
504
508
508
505
507
510
509
508
510
512
510
507
511
513
512
511
515
516
514
515
520
519
515
513
514
510
504
505
507
505
502
505
506
503
500
504
504
501
502
521
547
568
577
562
526
494
491
502
505
501
501
503
500
497
501
503
501
499
503
503
500
500
505
506
503
504
508
506
503
505
508
506
504
508
509
507
505
510
510
507
505
509
509
505
505
509
508
505
507
510
509
505
507
509
507
504
507
507
504
501
506
506
504
503
508
508
505
506
509
508
505
508
510
509
505
509
510
509
508
513
514
511
511
518
519
518
517
518
514
508
508
509
506
502
505
506
504
501
504
505
503
498
500
504
519
546
574
576
549
513
492
490
495
499
500
497
494
497
498
496
494
498
499
496
496
500
500
496
497
501
501
498
500
503
502
500
504
506
505
505
508
509
505
503
507
506
503
501
505
504
501
502
506
506
503
505
507
506
503
506
507
505
502
505
506
503
502
506
505
503
503
507
508
506
507
510
508
505
508
510
508
507
512
514
512
510
515
516
513
514
519
516
511
510
511
508
504
506
507
504
501
504
505
502
499
503
502
502
515
546
572
582
566
534
502
490
499
507
505
500
501
503
502
499
503
503
501
499
504
505
502
502
506
505
502
505
509
509
506
508
510
509
507
510
511
510
508
512
511
508
507
510
510
508
509
513
513
510
512
514
511
508
510
511
509
506
510
511
507
505
509
509
507
507
512
511
508
509
514
512
509
511
513
511
509
515
517
516
515
518
520
519
519
524
523
518
517
518
514
509
509
511
509
505
507
508
506
504
508
507
503
505
527
554
574
577
559
522
495
494
504
507
503
504
504
502
499
502
503
502
500
505
505
502
500
505
504
501
502
505
504
501
502
506
505
502
505
506
505
503
506
506
503
500
503
503
499
499
503
503
502
504
508
507
504
506
508
506
503
506
507
505
502
506
506
504
504
507
507
504
505
510
509
506
508
510
509
506
509
511
511
510
514
515
513
515
520
520
516
514
516
512
506
505
508
506
501
504
506
504
501
505
505
501
498
509
531
555
572
571
542
504
487
494
500
498
498
499
497
495
499
501
499
496
500
501
499
498
502
502
500
500
503
502
500
502
505
503
501
504
507
505
502
506
507
505
502
505
505
503
501
505
505
503
504
508
506
503
505
508
507
504
506
507
505
502
506
506
504
503
507
507
505
505
510
508
505
507
509
508
506
510
512
511
510
514
516
514
514
519
521
519
517
518
516
510
509
510
508
504
505
506
504
501
504
505
502
497
502
515
538
563
580
566
528
497
492
498
501
502
504
500
497
500
502
501
498
502
503
501
499
502
503
501
501
506
506
503
505
508
508
505
507
510
507
504
507
508
506
504
507
507
503
502
506
507
505
505
510
508
505
507
510
509
506
508
510
508
504
507
508
506
505
509
510
507
507
512
511
509
510
514
513
509
511
513
512
510
515
517
516
513
518
519
518
518
523
521
515
512
512
508
503
505
507
505
501
504
506
503
500
502
501
500
511
541
569
581
565
534
500
488
496
504
503
498
500
501
500
497
501
502
501
500
504
504
502
501
505
504
501
503
507
506
504
506
509
508
504
507
510
509
507
509
509
507
505
508
507
505
505
509
510
507
508
512
511
507
510
512
509
505
509
510
508
505
510
511
509
508
513
512
509
510
515
514
511
512
515
514
510
514
518
516
514
517
519
518
518
524
523
519
516
518
515
510
509
512
509
504
507
509
507
504
508
508
505
504
523
549
572
579
564
529
498
493
504
507
503
503
504
502
500
503
505
503
500
504
506
503
502
507
507
504
504
508
507
504
505
508
507
504
507
509
507
504
508
509
506
503
507
507
504
502
506
507
505
506
509
509
506
509
512
509
505
508
509
506
504
508
508
505
504
509
509
506
506
510
509
506
507
511
509
507
511
514
513
511
514
515
515
515
520
521
516
513
515
511
505
504
506
505
501
502
504
502
500
503
504
500
499
515
540
563
573
561
528
494
486
497
500
497
495
497
495
493
496
498
496
494
498
499
497
495
500
501
498
497
501
500
496
497
501
500
497
501
504
503
500
504
505
502
500
503
503
500
499
504
503
500
501
505
505
502
503
505
503
500
502
503
501
499
503
504
503
500
504
505
502
502
506
506
503
503
506
504
502
505
508
508
507
511
513
512
512
518
520
517
513
515
512
507
505
507
505
501
502
505
503
500
502
504
501
497
502
515
538
562
579
564
527
494
490
498
499
499
500
498
495
497
499
498
496
500
503
500
498
501
503
500
500
504
505
501
501
505
505
502
504
507
505
503
505
508
506
504
507
508
504
501
505
506
504
504
509
508
505
506
508
507
504
506
508
506
503
506
506
505
503
506
507
504
504
509
508
505
506
510
509
506
508
510
509
508
513
516
514
511
516
519
519
518
522
520
514
510
512
508
503
503
506
504
500
502
505
504
500
502
501
503
517
549
575
577
554
521
495
491
498
506
503
498
499
502
501
498
501
503
502
500
504
504
502
501
506
506
504
504
509
509
505
506
509
508
505
507
511
509
506
510
512
510
507
510
510
507
507
511
511
508
508
512
511
508
510
513
510
507
509
511
509
507
510
510
508
506
510
510
508
508
512
511
509
510
513
511
508
511
514
514
513
516
517
515
514
520
522
520
518
521
518
512
509
511
509
505
507
509
507
504
506
508
506
501
504
514
535
561
583
574
541
506
495
499
503
505
506
503
499
501
503
502
500
505
505
504
503
507
507
505
503
507
507
505
505
509
509
506
509
512
510
507
510
512
510
508
512
512
508
505
509
509
507
507
511
511
508
508
511
510
506
509
510
508
504
507
508
506
504
507
508
505
505
509
509
506
507
511
510
506
508
511
509
507
512
515
514
511
516
519
518
517
521
518
513
509
510
508
503
503
505
504
500
503
505
502
500
502
502
501
513
542
567
574
557
527
497
488
496
504
503
498
499
502
500
497
500
502
499
497
501
501
499
498
503
503
500
500
505
505
502
503
506
504
501
504
507
506
502
506
507
505
502
506
506
503
503
507
506
503
505
509
508
505
506
508
506
502
506
507
504
501
505
505
503
502
507
508
506
506
509
509
507
508
511
510
506
509
511
511
509
513
514
512
512
518
519
516
514
516
513
506
505
507
505
502
503
505
502
499
502
503
501
496
500
513
534
560
579
566
531
498
491
497
499
499
500
498
495
498
501
499
496
501
502
500
498
502
503
501
500
504
504
501
502
507
506
504
506
509
508
506
510
512
510
506
509
509
506
504
508
508
506
507
512
512
509
510
513
511
508
510
511
509
506
509
509
507
505
509
509
507
507
511
511
508
510
514
512
509
510
513
511
508
512
514
514
512
516
516
515
515
521
521
516
515
516
512
506
506
509
507
503
505
507
505
502
506
506
503
500
512
532
557
576
578
550
511
492
498
504
502
503
503
501
498
501
503
501
499
503
504
502
501
505
505
502
503
507
506
503
505
508
507
504
507
509
508
505
509
509
506
503
506
506
502
500
505
505
503
505
508
507
504
505
507
505
503
507
507
505
502
506
506
503
502
507
506
504
504
508
508
506
508
512
510
507
510
512
510
508
512
514
512
510
515
517
517
516
521
519
513
511
512
508
504
505
507
504
500
504
506
503
501
503
502
500
510
540
567
578
562
530
496
487
497
504
502
497
499
501
499
496
501
502
499
498
503
503
500
500
503
503
501
503
506
505
501
505
508
507
505
508
509
507
505
510
511
507
504
508
508
504
505
509
508
506
508
511
510
507
510
511
509
506
508
509
507
505
509
509
506
507
511
510
506
507
510
509
506
509
512
510
508
512
514
513
511
516
517
517
517
522
522
518
517
518
515
509
509
510
507
504
505
507
505
502
506
506
502
498
510
532
559
579
579
549
509
492
498
503
501
502
503
501
498
502
503
501
499
503
503
501
500
504
504
502
503
507
507
504
506
509
508
506
510
511
510
508
511
512
509
507
510
509
506
506
509
509
506
509
512
511
507
510
512
510
507
510
511
508
505
509
509
506
505
510
510
508
509
512
511
507
508
511
509
506
510
511
510
508
513
515
513
513
518
520
518
518
520
516
511
509
511
508
504
506
508
506
502
505
506
504
501
504
504
513
538
568
580
563
531
503
493
497
504
506
502
499
502
504
501
499
503
503
500
499
503
503
501
501
505
504
502
503
507
505
502
506
508
507
504
508
509
507
504
508
508
504
502
506
505
502
503
508
507
504
506
508
506
504
506
507
504
502
506
506
502
501
506
506
503
503
506
506
503
505
508
507
504
508
510
508
506
511
513
511
510
515
517
515
516
519
517
511
508
509
506
502
503
505
503
500
502
503
501
499
502
501
499
510
539
563
573
558
530
497
485
493
501
500
495
498
500
498
495
499
500
498
497
501
502
500
499
504
502
500
501
505
504
501
503
506
505
502
506
508
506
504
508
507
504
502
506
505
502
502
507
507
505
506
510
509
506
508
510
508
505
508
509
507
506
509
509
506
506
510
510
508
509
513
512
508
511
514
514
511
515
518
517
515
519
520
518
518
524
523
519
517
518
515
509
509
511
509
505
509
511
509
506
508
509
505
501
514
538
562
580
576
544
505
491
499
504
502
503
503
501
498
501
502
500
498
501
502
499
498
502
502
500
500
504
504
502
504
507
506
504
506
507
506
504
508
510
507
504
507
506
502
501
505
505
502
503
507
506
502
504
506
504
501
505
506
505
502
505
506
503
502
507
507
505
506
509
508
504
505
509
507
505
508
510
509
508
512
514
512
510
517
519
518
517
519
517
511
509
509
506
502
504
504
502
500
504
505
503
500
503
502
508
531
563
581
569
538
507
491
494
502
504
501
497
500
502
501
500
504
505
503
501
505
506
502
501
506
506
504
505
509
507
504
507
510
509
506
510
512
510
508
511
511
508
506
509
508
505
506
510
509
506
508
510
507
504
508
509
506
503
507
508
506
504
508
508
505
505
508
508
505
507
510
509
506
508
511
510
507
511
513
514
512
516
516
514
515
520
520
517
515
516
512
507
507
508
505
502
505
506
504
502
506
507
503
500
507
524
549
573
582
558
519
494
496
503
503
504
504
501
498
501
503
501
498
502
502
499
498
503
503
501
502
505
505
502
505
508
506
504
506
509
507
504
508
508
506
504
508
507
504
503
507
507
504
507
511
509
506
508
510
508
504
507
508
505
503
506
507
504
502
506
505
502
502
506
505
503
506
508
507
504
507
509
507
505
510
513
510
508
514
516
515
516
520
519
513
511
513
508
503
504
505
503
500
503
504
502
500
503
502
499
507
533
559
574
566
540
505
488
495
503
502
497
498
500
498
496
500
501
499
497
501
501
498
498
503
502
499
501
504
503
501
503
506
505
503
507
508
507
504
508
507
504
503
508
507
503
503
507
506
504
506
509
507
504
507
508
505
502
505
505
502
500
504
503
501
501
506
505
503
504
508
507
505
508
510
508
505
509
509
507
506
512
513
510
509
516
517
516
516
518
515
509
509
509
506
503
505
506
503
501
505
505
502
500
503
504
513
537
566
577
560
528
500
491
496
503
504
501
497
501
502
501
499
503
504
501
500
504
504
501
503
506
505
501
504
507
505
503
507
509
507
504
508
510
507
507
510
510
505
505
508
507
504
506
509
508
505
509
510
509
506
509
510
508
506
509
509
505
503
508
508
506
507
511
509
507
510
512
511
508
511
512
509
507
511
512
509
509
515
516
512
511
517
518
517
518
520
516
509
510
510
508
504
507
508
506
503
507
507
504
503
505
503
508
531
562
579
570
541
507
490
492
502
504
500
497
500
501
498
497
502
503
501
501
505
504
502
504
507
507
504
508
510
509
506
510
510
508
507
511
511
509
508
512
510
507
507
510
508
504
507
510
508
506
511
511
508
506
510
510
507
506
509
509
507
507
510
509
506
507
510
509
506
509
511
510
507
510
511
508
506
510
510
509
509
514
515
511
512
516
517
516
519
521
518
514
515
514
509
505
509
508
505
503
507
506
503
503
506
503
502
520
552
576
581
564
530
499
492
504
508
504
500
504
504
501
499
503
503
500
502
506
505
503
506
508
506
503
506
507
506
504
507
508
506
505
510
510
508
508
512
511
507
508
511
510
506
509
512
511
509
514
514
511
509
513
512
508
507
510
509
506
507
510
508
505
508
510
508
505
508
510
509
507
510
511
508
507
511
511
508
509
515
515
511
514
518
518
516
520
521
518
513
514
513
509
507
511
510
505
504
508
508
504
505
507
504
505
525
554
574
574
554
520
494
490
502
505
501
499
502
502
499
500
504
504
500
502
504
504
502
505
507
505
503
507
508
506
506
510
511
508
508
513
511
508
509
511
509
506
507
509
507
504
508
510
509
507
511
511
508
506
510
510
506
505
509
507
503
505
507
505
502
505
507
506
503
508
509
507
505
510
510
508
507
511
510
508
510
514
514
510
513
516
517
516
520
520
516
512
513
510
506
504
507
507
504
504
508
508
504
504
505
503
505
525
553
573
573
553
518
492
491
503
505
500
498
501
500
496
498
502
501
498
500
503
502
499
503
504
502
500
504
506
503
502
507
507
504
505
510
510
508
509
512
510
506
509
511
508
504
508
509
507
506
510
510
506
505
509
507
504
503
506
504
501
502
505
504
502
506
508
506
504
509
510
508
507
511
511
508
509
513
511
508
509
513
513
510
514
515
515
514
519
520
517
515
516
512
506
504
507
505
501
501
504
503
500
502
504
500
496
504
523
548
569
576
551
512
488
492
499
498
496
499
499
495
497
500
498
495
498
500
498
496
501
502
501
500
504
504
502
502
506
506
503
504
508
507
505
508
510
508
504
508
508
505
503
507
507
504
504
507
506
503
503
507
506
502
504
507
505
502
505
506
504
502
506
507
505
504
508
507
504
503
508
508
506
507
510
508
505
507
509
507
505
509
512
511
509
514
515
515
515
521
520
515
514
516
512
506
507
508
506
502
505
507
505
502
505
505
501
501
520
546
570
581
568
532
498
492
502
505
501
502
504
503
500
503
504
502
500
505
506
503
502
505
505
503
503
507
507
504
507
509
508
506
510
512
510
507
512
512
509
507
511
511
508
508
511
511
507
509
513
511
508
511
511
509
506
509
509
506
504
508
508
505
505
509
508
505
505
509
508
506
508
510
508
506
509
510
508
506
510
512
511
510
515
516
514
515
521
521
518
519
520
517
512
513
513
510
506
509
509
507
505
508
506
503
502
504
508
524
552
577
578
552
518
497
496
500
506
505
501
498
502
504
501
500
504
504
501
501
505
505
502
503
507
506
503
506
509
507
505
509
510
508
507
512
512
509
508
512
511
507
506
509
508
505
506
508
507
504
507
508
506
504
507
508
505
504
508
507
503
504
508
507
504
507
510
509
506
509
511
509
507
511
512
510
507
512
511
509
509
515
515
511
512
516
516
514
517
518
516
511
511
510
507
503
506
507
504
502
505
505
502
500
503
501
502
522
551
572
570
549
516
491
489
500
504
500
496
500
500
497
496
501
501
499
500
503
502
499
502
505
503
500
503
506
504
502
507
508
506
505
510
510
507
507
511
510
505
505
508
506
502
505
507
505
503
506
507
504
501
505
505
504
503
507
506
502
502
506
505
502
504
507
505
503
506
507
505
503
507
509
506
504
508
508
506
507
512
513
511
513
517
517
516
520
522
520
515
516
514
509
506
508
507
503
501
504
504
500
501
504
502
498
502
521
547
568
579
560
521
491
491
499
500
497
500
500
496
497
500
500
497
499
501
499
497
500
502
500
498
502
503
502
500
505
505
503
503
507
507
504
505
509
509
505
507
509
507
503
506
507
505
503
507
507
504
502
506
506
503
502
505
504
501
503
505
504
501
504
506
505
503
507
508
506
505
509
509
506
505
510
509
506
507
511
511
509
512
514
514
511
517
520
520
516
519
516
510
507
509
507
504
503
506
505
502
503
506
505
501
502
508
523
548
577
585
562
524
500
496
501
503
505
503
499
500
503
502
499
501
504
503
501
504
505
503
501
506
508
505
504
509
511
508
508
511
511
508
510
513
511
508
511
514
511
507
510
511
508
506
510
511
510
509
513
512
508
508
512
510
505
507
510
508
505
508
509
507
504
508
509
507
506
511
511
509
508
512
511
508
509
514
515
514
517
519
517
516
521
523
521
518
520
517
512
509
511
510
507
507
509
507
503
505
508
506
501
505
519
542
566
584
569
533
500
495
501
503
503
505
503
499
500
504
502
499
502
505
503
500
504
505
503
502
507
507
505
504
508
508
506
506
511
511
508
510
513
510
507
510
511
507
504
507
508
506
505
509
509
507
506
510
508
505
506
508
505
501
504
506
504
501
505
507
505
503
507
508
506
506
511
511
507
508
511
510
508
511
515
514
510
514
517
517
515
519
518
513
508
510
507
502
501
503
502
499
500
503
502
498
500
501
498
505
530
558
573
564
538
505
488
492
502
502
497
496
500
499
496
498
500
499
496
499
502
500
498
502
503
501
499
503
504
502
502
507
507
504
506
508
507
504
507
509
508
504
507
507
504
502
507
507
505
504
508
507
504
504
507
505
502
503
505
503
500
503
505
503
501
506
506
504
503
508
508
505
505
510
509
506
507
510
509
508
512
514
512
510
517
520
519
516
519
517
511
507
509
507
503
503
505
504
501
502
505
503
500
501
505
518
542
572
581
558
520
495
491
496
500
503
499
495
497
500
498
495
499
502
500
497
500
502
501
499
504
504
502
502
506
506
503
505
509
508
507
508
511
509
506
509
509
506
502
506
506
503
502
507
507
504
504
508
506
503
504
506
504
501
504
506
505
502
505
506
504
502
507
506
503
503
507
507
504
505
509
507
504
506
509
509
508
511
513
511
511
517
519
517
515
517
514
508
506
508
506
502
504
506
505
501
504
506
504
500
502
507
525
552
580
580
549
511
494
495
498
500
503
500
496
499
502
500
497
500
502
499
498
503
504
502
501
506
506
503
503
507
506
504
505
509
507
505
508
510
508
505
509
511
507
505
508
508
505
505
509
508
505
506
510
509
505
507
509
507
504
507
509
508
505
508
509
507
506
510
511
509
509
513
513
510
511
515
513
509
512
516
515
513
517
519
518
517
523
524
521
519
520
517
510
508
510
508
504
506
509
506
503
507
508
505
500
504
516
539
565
585
575
539
504
495
499
502
504
504
502
498
502
503
501
498
502
503
502
500
504
505
502
501
506
507
503
504
507
506
503
506
509
509
506
510
511
509
507
510
510
508
506
511
510
508
508
512
512
508
510
512
510
507
509
511
508
505
509
511
509
506
509
509
506
506
510
510
507
508
511
510
507
509
511
510
508
511
514
513
510
514
516
515
515
521
521
518
516
518
514
508
508
509
507
503
505
507
505
502
506
506
502
499
508
528
551
572
578
552
513
491
494
500
499
499
501
499
497
500
501
499
497
501
502
499
498
502
502
499
500
504
504
501
502
506
506
503
506
508
507
505
509
510
508
505
509
508
505
504
509
509
507
508
511
509
505
506
510
508
504
507
508
505
502
505
506
504
502
506
507
504
505
509
509
507
508
511
510
507
509
511
509
506
510
513
511
510
516
518
517
517
521
519
514
511
512
509
504
505
507
505
502
504
506
503
500
504
503
499
505
531
558
574
568
544
507
488
494
504
503
499
501
503
501
498
502
503
501
499
503
503
500
500
504
503
500
502
505
504
502
504
507
506
504
508
511
509
507
511
511
508
506
510
509
506
505
509
509
506
507
510
508
505
507
509
507
504
508
509
506
504
508
507
505
503
507
506
504
505
509
509
505
508
510
510
507
509
511
510
509
514
515
512
513
519
521
519
518
520
517
511
508
510
507
503
505
508
506
503
506
507
505
501
502
504
515
542
573
584
563
528
501
494
498
504
506
502
498
501
503
501
499
502
504
501
499
504
505
503
503
507
507
505
506
511
509
506
509
512
511
508
512
514
511
509
512
512
509
507
510
510
508
508
512
510
506
508
511
509
505
508
509
507
504
507
507
505
504
508
507
505
505
510
509
505
506
509
508
505
508
510
508
506
511
514
514
511
515
516
516
516
521
520
515
513
515
511
506
508
509
506
503
506
508
505
502
506
505
501
500
519
545
569
580
568
533
498
491
501
504
501
502
503
501
498
502
503
501
499
503
504
502
501
506
506
503
503
507
507
504
506
509
509
507
510
512
510
508
512
513
510
508
511
510
506
506
510
510
508
509
513
511
508
510
511
509
506
509
510
508
505
509
509
506
506
510
510
508
508
511
510
507
510
513
511
508
512
514
514
511
516
517
515
516
521
522
520
518
520
516
510
508
510
507
503
505
507
505
502
505
506
503
499
503
510
529
555
579
575
544
509
494
496
499
503
504
502
498
501
503
501
499
502
503
500
499
503
504
501
501
505
504
501
503
506
505
503
506
508
507
505
510
511
509
506
510
509
507
505
509
507
504
504
508
507
504
506
509
506
502
504
506
504
501
505
506
503
502
506
506
503
504
508
508
505
507
510
509
506
509
511
509
507
512
515
513
510
516
518
518
518
523
521
515
512
513
509
504
505
506
505
502
504
505
503
500
503
501
498
505
530
558
574
568
543
506
487
493
503
502
498
499
501
500
497
501
502
499
497
502
503
501
499
504
504
502
503
506
506
502
504
507
505
502
506
508
507
505
508
508
505
503
507
508
504
503
507
507
504
505
508
507
503
505
507
505
502
505
507
504
501
505
505
503
502
506
506
503
503
508
507
504
506
510
508
505
507
510
509
508
512
514
513
513
519
520
517
515
516
512
505
504
506
504
501
503
505
502
500
502
503
499
495
501
516
542
566
580
561
522
493
492
499
501
502
503
501
497
500
502
500
498
501
503
501
499
504
505
502
502
506
505
502
504
508
506
503
506
509
508
506
511
512
510
507
511
510
507
505
509
509
505
506
510
509
506
507
509
507
503
505
507
506
503
506
507
504
502
505
506
504
504
508
507
505
506
509
508
505
507
510
509
509
514
516
514
512
517
519
517
517
520
518
512
509
510
508
503
504
506
504
501
503
504
502
500
501
501
504
521
554
577
574
548
516
493
492
499
504
501
497
499
502
501
498
502
505
502
501
505
505
503
503
507
507
504
504
509
508
505
508
511
510
507
510
513
510
507
510
510
507
505
509
508
506
506
510
510
507
507
510
509
506
507
509
507
505
508
509
506
503
508
508
505
503
507
506
503
503
507
507
505
507
511
510
509
514
517
515
512
518
521
520
519
523
522
517
514
515
511
506
506
509
507
503
505
508
506
502
503
503
502
514
544
572
580
560
528
499
492
500
507
505
500
500
503
502
499
501
503
501
498
502
503
501
499
504
504
502
501
505
506
503
505
509
508
505
508
511
509
507
510
510
507
504
508
508
506
504
509
510
507
507
512
511
507
508
511
509
505
507
509
507
505
508
510
507
506
510
511
508
507
511
511
508
510
514
513
511
514
516
515
513
518
520
520
517
520
518
513
509
511
509
505
505
509
507
503
505
508
506
502
503
503
508
529
562
583
575
542
509
492
493
499
504
502
497
497
501
500
498
500
502
502
500
503
505
503
500
505
507
504
503
508
508
505
505
509
509
507
508
512
510
507
509
511
509
506
509
510
508
506
510
510
508
507
511
509
505
506
508
505
502
504
507
505
502
506
508
506
503
507
509
506
505
509
509
506
506
511
511
509
510
515
514
512
517
520
518
514
516
514
509
504
506
506
502
501
505
504
501
501
505
502
497
500
516
541
565
580
565
527
495
493
501
502
500
503
502
498
499
503
501
498
499
503
503
500
504
506
504
502
505
507
505
503
509
509
507
506
510
510
508
509
513
510
507
508
511
509
506
508
511
509
507
511
511
508
506
509
507
505
505
509
507
503
504
506
505
502
505
506
505
503
507
508
506
505
509
510
509
509
514
514
510
512
517
519
516
519
520
516
510
511
510
507
502
505
506
503
501
504
503
501
500
501
499
504
527
558
576
567
539
506
489
491
500
501
496
493
497
497
494
493
498
498
496
496
500
500
497
499
501
500
498
502
504
503
501
505
507
504
504
508
508
504
504
507
506
502
503
506
504
501
503
506
504
502
506
507
505
503
507
508
506
504
508
508
504
504
507
505
503
505
508
506
503
507
510
508
506
510
510
508
507
513
514
510
510
516
516
514
516
517
514
509
509
509
506
503
505
506
504
502
505
505
502
501
503
501
505
529
562
580
569
539
505
490
492
501
503
498
494
498
499
497
496
500
501
497
498
502
500
497
498
502
502
500
503
505
504
502
507
508
506
505
509
510
508
507
510
509
504
504
507
505
502
504
507
506
503
506
508
507
504
507
509
506
504
509
509
506
506
510
509
505
506
509
508
506
508
511
510
507
510
511
510
510
515
515
513
512
518
520
519
520
522
518
513
511
512
509
505
507
508
506
503
507
508
505
503
505
505
514
540
571
585
569
536
505
493
496
505
507
502
498
501
503
501
500
504
505
502
501
506
507
504
504
508
507
504
506
509
508
505
508
510
508
506
510
511
509
507
511
510
507
506
510
510
507
508
513
512
508
511
513
510
506
508
509
506
503
507
507
505
504
508
508
505
506
510
508
505
507
510
509
506
510
512
512
509
513
515
513
513
520
522
519
516
518
514
509
508
509
507
503
505
507
505
502
506
507
503
498
504
520
544
568
580
559
520
493
494
500
500
500
501
499
496
499
501
500
498
502
503
500
498
503
503
500
499
503
503
500
501
504
503
500
503
506
505
503
507
507
504
502
506
507
504
502
507
507
504
505
510
510
506
508
511
510
506
510
510
508
505
508
508
506
505
509
510
507
506
510
510
507
508
511
510
508
511
515
514
511
516
518
518
518
523
523
519
516
518
515
510
507
510
508
504
505
507
505
501
504
505
502
500
517
542
565
576
566
533
499
490
501
504
500
499
501
499
496
499
502
501
499
502
503
502
499
504
504
501
499
504
505
502
503
507
507
504
505
508
507
504
507
509
507
504
507
507
504
502
506
507
505
505
510
509
506
507
511
509
504
506
507
505
503
506
507
504
501
506
507
504
503
508
508
505
505
508
507
505
508
513
512
508
512
516
516
514
519
519
514
509
510
508
505
503
506
505
501
503
506
504
500
501
502
501
509
536
567
581
567
537
503
490
495
505
504
499
497
501
500
496
498
502
500
496
499
502
499
497
501
503
500
498
503
503
501
501
506
507
505
505
509
508
505
507
509
506
502
505
506
503
501
505
506
504
504
508
507
504
503
507
505
502
503
506
505
502
