329
328
324
326
332
330
325
327
329
329
326
327
331
331
328
327
332
333
328
326
331
335
332
328
332
333
331
319
339
405
334
314
322
328
326
323
325
329
328
324
324
328
328
324
325
329
331
326
325
329
330
327
327
331
331
327
324
329
331
328
326
330
332
329
326
329
332
329
326
328
332
332
325
329
332
330
318
331
396
344
313
320
325
326
322
320
325
325
322
320
323
323
321
321
325
327
323
320
324
326
324
320
321
324
322
317
321
323
322
318
320
323
322
318
318
321
322
317
317
324
325
319
320
323
324
312
323
385
337
308
312
317
320
320
315
320
323
320
317
320
324
322
320
323
325
324
320
320
323
324
321
320
324
325
322
321
325
326
324
321
324
328
324
322
327
327
324
322
327
330
328
324
326
329
320
336
399
325
318
319
321
326
327
324
324
328
328
326
324
329
332
330
327
330
331
328
324
329
331
328
326
329
331
328
324
327
329
330
325
327
332
330
326
328
329
331
328
328
330
329
328
329
330
332
329
327
325
333
378
367
317
326
322
321
325
327
324
322
323
327
324
320
322
325
326
322
323
328
328
324
323
326
325
320
321
324
325
323
321
324
326
322
320
322
324
322
318
321
323
320
317
320
325
323
319
321
324
323
316
343
398
318
316
318
325
326
322
322
326
326
321
318
322
322
321
319
324
323
321
320
323
325
324
321
324
327
328
323
327
331
330
326
326
330
329
324
322
325
325
323
323
325
328
323
323
317
337
402
317
315
318
317
314
317
320
320
315
318
321
318
314
317
322
323
320
322
327
328
324
325
329
328
324
326
328
328
326
323
328
328
324
324
330
333
328
327
330
332
327
322
358
392
320
322
325
330
328
326
326
330
330
327
328
332
333
330
333
339
340
338
340
345
346
343
343
346
348
346
343
347
349
347
345
347
349
347
349
351
351
351
347
349
345
353
396
376
339
344
339
341
344
345
343
344
345
346
342
340
343
346
344
341
342
342
339
337
338
340
337
334
337
337
336
332
334
336
334
328
329
333
334
328
327
331
330
327
318
342
401
317
311
319
321
319
317
319
321
320
315
318
320
317
315
317
318
316
311
309
313
318
317
322
327
324
298
301
307
310
308
309
314
318
315
315
320
323
322
322
326
326
325
323
324
322
345
393
314
319
318
318
320
323
323
319
316
320
319
314
316
320
321
318
318
321
323
322
320
323
324
321
320
322
324
321
318
323
324
322
320
323
325
322
319
323
327
322
320
321
324
319
313
348
379
308
309
311
314
315
312
311
316
317
313
309
314
315
314
312
315
315
313
310
312
315
314
310
311
315
313
309
312
316
315
310
312
316
313
310
310
316
318
311
309
313
316
303
323
384
307
299
303
307
311
310
307
311
313
312
308
313
316
316
312
315
317
315
310
311
316
317
312
313
317
318
314
313
316
318
315
315
319
320
318
318
321
322
321
317
320
317
321
367
354
311
317
316
320
324
323
319
323
327
328
324
325
331
334
332
332
335
336
334
334
340
343
341
340
343
345
342
342
348
351
350
348
352
356
353
352
354
359
361
360
360
364
364
361
360
358
385
439
355
358
361
358
360
364
366
363
361
364
365
361
359
362
363
360
357
359
360
359
353
353
355
353
345
345
346
343
338
336
337
334
328
324
325
323
314
313
316
317
311
307
309
308
304
293
320
375
289
286
291
295
292
288
291
293
292
288
290
292
294
290
292
296
295
291
289
294
294
293
291
294
297
294
296
300
302
297
297
300
303
301
298
303
308
308
305
307
311
309
306
301
327
387
304
301
310
312
308
310
314
315
311
311
315
316
312
311
315
317
314
311
314
316
313
310
313
315
313
309
312
316
314
310
313
316
316
312
314
317
316
311
312
318
319
314
312
317
318
306
317
380
332
301
304
310
313
311
310
314
316
314
311
315
317
315
312
316
318
317
312
314
319
318
316
314
317
318
314
315
317
318
315
315
318
320
317
315
318
319
317
318
321
321
320
316
319
320
317
342
380
309
314
311
314
318
319
316
316
320
321
316
315
321
322
320
318
322
322
319
318
321
323
320
317
320
323
320
317
320
323
322
317
320
323
322
318
322
325
323
320
320
325
317
329
387
328
313
315
314
321
324
321
320
324
326
324
322
326
329
326
323
325
327
325
322
325
328
327
321
323
328
328
323
323
327
327
321
321
326
326
320
320
325
328
324
321
325
328
325
315
328
387
344
307
318
322
320
316
319
322
320
316
317
321
320
316
318
324
323
318
317
320
323
318
317
322
322
318
318
323
323
320
316
321
323
321
316
317
320
322
317
320
322
322
317
316
314
340
386
305
310
313
311
308
313
315
311
311
313
315
311
311
314
317
314
313
315
316
314
309
313
316
314
311
313
316
315
311
312
318
316
312
314
316
315
311
311
317
320
313
312
316
319
309
313
362
347
300
305
309
313
312
309
312
315
313
308
310
314
315
311
315
319
318
313
322
326
328
325
324
328
330
327
326
331
333
330
326
332
333
331
330
335
335
333
330
333
335
327
348
404
327
328
327
331
334
335
331
333
337
337
334
333
338
340
335
335
339
340
336
336
338
341
337
335
339
341
339
336
339
342
340
336
339
343
339
335
337
339
340
340
341
341
342
339
338
335
345
394
366
327
335
333
331
336
337
333
332
333
336
333
329
331
336
334
330
331
335
333
328
330
332
331
326
326
330
330
327
326
330
328
326
325
328
328
325
325
328
326
324
321
321
318
325
375
345
313
318
314
318
319
319
313
315
318
317
313
313
319
320
317
315
318
319
315
312
317
320
315
314
318
320
320
316
320
323
322
319
322
326
327
325
326
328
330
325
328
325
341
395
333
322
330
328
329
334
336
333
333
338
341
340
337
345
346
344
341
343
345
345
341
344
346
344
341
344
346
346
341
341
345
346
340
339
342
345
341
339
343
343
338
335
337
333
353
405
326
327
329
327
330
330
329
323
325
328
325
319
320
324
324
319
318
321
320
315
315
318
319
313
311
314
316
311
308
312
313
309
306
310
310
307
304
307
312
311
305
308
310
310
300
316
373
321
295
301
307
310
305
308
313
313
310
309
315
320
318
317
323
324
321
318
322
324
322
319
321
324
322
318
321
325
324
320
321
325
324
321
322
325
326
324
325
327
328
324
324
323
326
359
375
313
319
320
319
323
326
325
322
325
328
328
327
330
336
337
334
336
341
342
338
339
342
347
343
344
351
353
350
349
354
358
356
354
359
361
358
356
360
363
360
358
360
362
353
373
432
353
351
348
351
355
355
349
349
352
352
347
344
347
347
343
342
344
345
341
336
338
340
336
332
333
335
331
326
326
329
328
323
323
325
323
318
322
324
320
317
316
319
312
314
363
343
301
303
302
306
308
305
303
306
308
306
303
306
310
308
305
307
308
305
300
301
305
304
298
297
302
302
295
295
299
299
295
293
297
298
296
296
300
302
300
296
300
296
300
341
330
289
294
291
294
299
300
295
298
301
302
298
299
303
306
301
300
304
305
302
299
303
305
304
301
306
309
305
301
306
309
309
305
308
310
310
310
310
311
310
305
308
303
317
373
317
297
304
301
301
306
308
304
303
307
309
304
303
307
311
309
306
311
313
310
306
309
311
310
306
308
312
312
306
307
311
312
306
308
312
316
311
311
316
316
312
303
327
392
314
302
311
315
313
311
314
317
314
310
314
317
315
311
313
319
317
313
313
318
318
313
314
318
318
314
312
317
319
314
313
315
317
317
313
316
319
317
312
315
311
333
380
304
309
312
308
313
318
317
312
313
318
320
315
315
320
321
317
315
320
322
316
314
318
323
318
314
320
322
320
316
320
323
321
317
322
329
326
320
322
326
326
317
321
369
363
307
313
320
322
319
319
325
326
322
320
324
326
324
323
328
331
327
324
326
330
328
323
326
329
329
323
326
327
326
321
321
325
325
320
320
327
327
321
320
322
324
312
328
396
321
310
310
316
319
316
312
316
318
316
311
312
317
315
312
315
318
317
312
311
316
315
311
310
315
314
312
310
314
316
312
308
310
314
314
310
310
315
312
308
309
314
349
352
297
309
308
306
307
311
313
307
308
313
315
311
310
315
317
313
311
314
317
314
310
315
318
313
311
314
316
315
312
315
320
318
312
315
321
322
317
316
320
321
316
309
330
391
320
304
314
317
314
313
319
321
317
316
319
322
320
316
320
324
321
317
318
322
320
316
317
323
323
320
320
326
327
322
321
325
325
320
318
323
323
318
315
320
321
318
314
316
319
309
317
383
330
303
302
307
312
311
308
309
312
312
308
309
313
313
309
309
313
314
310
308
315
314
311
308
312
313
310
308
311
314
312
310
312
316
314
310
313
315
314
309
314
317
317
312
311
314
309
327
383
307
308
304
304
309
311
308
305
310
311
307
304
309
310
309
304
308
312
310
306
309
312
312
305
308
312
311
308
307
311
312
307
307
312
312
307
306
313
316
313
307
313
315
312
303
313
360
339
294
305
309
310
306
309
313
312
307
309
335
338
338
340
344
345
340
339
346
348
343
342
345
348
344
343
346
350
345
343
347
349
346
341
346
351
350
342
345
348
346
334
347
402
364
327
334
340
343
339
338
341
345
340
338
344
347
342
343
347
347
344
339
341
345
343
338
340
345
343
339
340
344
345
337
338
341
341
334
337
345
346
339
338
343
344
337
334
372
396
324
328
333
336
335
330
335
338
336
332
334
339
337
333
335
340
337
333
333
337
336
331
332
336
337
330
330
335
335
332
329
332
334
331
325
330
336
332
327
331
334
330
322
329
373
373
314
323
327
328
322
324
329
330
325
325
331
331
329
329
333
335
329
328
332
335
332
328
332
334
333
330
333
336
334
330
331
337
335
331
333
342
340
336
339
343
345
332
344
405
355
326
330
337
338
335
333
337
339
337
334
337
342
339
338
341
346
345
342
344
349
347
344
344
349
350
346
346
350
350
348
348
352
355
350
350
359
361
357
355
359
362
355
354
402
409
347
349
353
358
357
354
356
360
360
356
358
362
361
357
358
364
363
359
357
362
364
360
358
359
362
357
354
358
360
358
352
352
353
352
350
353
353
351
344
346
341
350
406
359
333
337
333
334
338
338
334
331
334
335
332
328
332
335
331
328
331
333
329
327
328
331
329
325
326
329
327
321
322
326
324
320
320
322
324
320
316
320
320
314
305
317
375
335
297
306
309
305
303
307
309
305
301
306
309
306
302
306
310
308
303
306
309
309
305
306
310
310
305
304
308
310
305
304
308
309
303
300
305
308
306
301
305
309
304
300
298
328
369
289
295
298
298
292
296
300
299
296
296
300
299
295
296
302
303
300
299
304
305
301
298
303
306
303
300
306
308
307
302
308
312
312
311
315
319
318
315
317
322
314
333
388
316
316
317
319
326
329
323
324
329
331
329
327
334
339
336
333
338
340
339
335
338
341
341
337
339
343
343
339
341
346
346
341
341
346
348
346
343
349
350
345
343
342
369
412
331
338
344
342
338
343
346
345
341
344
348
347
343
344
348
347
339
340
345
345
338
339
342
342
337
337
341
342
337
335
339
339
335
333
336
337
333
332
336
337
334
330
331
334
327
349
394
321
324
318
322
325
324
319
319
323
322
317
316
320
323
318
316
319
320
316
313
317
321
316
312
316
319
315
312
315
320
317
314
317
319
317
315
320
323
320
315
317
320
317
314
348
364
307
310
310
318
318
314
312
318
321
319
316
321
326
324
320
322
324
322
320
322
326
325
320
321
326
325
320
322
328
328
324
325
330
330
327
326
332
332
328
326
329
327
330
371
360
317
323
321
326
331
329
326
328
332
330
326
329
334
335
329
330
334
334
329
331
335
335
330
328
333
336
331
328
332
335
332
329
333
336
333
329
331
335
335
330
332
336
335
330
331
331
356
398
319
327
329
327
326
331
331
327
325
330
333
327
326
331
334
331
327
330
334
331
328
332
336
332
328
330
334
332
326
328
333
332
328
327
333
333
328
327
332
331
326
325
333
332
328
325
330
330
321
343
398
321
320
317
322
327
325
319
322
327
326
320
323
327
328
324
324
326
327
321
321
326
326
322
320
325
326
322
321
323
326
324
321
324
328
324
322
327
329
326
321
324
328
320
332
390
328
316
318
320
326
328
323
325
328
330
325
323
329
332
328
325
328
330
326
322
325
329
327
322
326
329
328
323
325
330
328
324
326
329
331
329
330
333
332
327
326
330
330
356
384
317
325
324
323
327
330
326
324
327
329
327
323
328
332
331
326
327
331
329
325
327
330
331
325
325
330
332
326
325
328
332
326
325
329
330
324
323
330
333
328
326
328
331
326
319
352
390
315
316
320
327
327
322
324
328
328
323
325
329
329
324
325
331
330
325
322
328
330
325
324
326
329
326
322
327
329
326
322
325
330
328
324
326
330
327
322
327
332
329
326
327
331
325
330
380
349
318
321
321
327
329
325
322
328
330
328
325
329
333
331
327
331
333
331
328
331
334
333
329
330
334
336
330
330
336
337
332
332
335
337
334
332
336
337
333
329
335
329
343
399
328
323
327
325
328
332
331
326
327
332
330
326
327
331
332
325
326
330
329
324
324
328
329
325
323
327
328
323
320
324
327
324
321
323
326
321
315
321
327
325
316
318
324
322
307
320
386
332
299
306
313
313
308
308
314
313
308
307
310
313
310
309
315
317
313
310
312
317
313
310
311
315
314
309
310
316
315
309
311
316
316
309
311
313
316
311
314
317
318
314
312
316
313
333
386
307
311
310
308
314
318
315
312
316
320
317
312
316
320
323
317
319
322
322
317
318
322
322
317
317
321
324
318
317
322
325
322
318
322
326
322
320
324
326
324
320
323
319
336
388
321
314
320
316
320
324
326
321
322
326
328
324
322
330
331
327
323
326
329
326
323
326
329
326
322
326
331
329
324
329
331
330
325
327
330
330
329
329
332
333
327
325
323
337
391
336
316
325
323
321
325
328
324
322
327
327
326
322
326
331
328
322
323
327
326
321
323
328
327
323
323
327
326
322
321
327
328
325
322
326
328
324
325
330
330
327
323
326
322
328
379
348
313
317
315
320
325
323
319
321
325
323
318
318
324
324
319
319
322
323
318
317
322
323
318
314
319
321
318
314
318
322
320
316
319
322
320
317
323
326
321
316
318
322
317
317
361
359
307
311
311
318
320
316
317
321
323
319
317
321
326
322
319
322
324
321
317
322
326
325
320
322
327
328
323
324
329
329
325
326
330
332
329
329
333
332
328
327
332
328
347
397
321
323
325
323
327
331
329
325
331
334
332
329
329
321
321
316
316
321
322
320
321
328
328
324
323
330
329
327
327
331
333
330
327
330
335
333
329
332
336
333
329
330
330
355
396
318
324
326
324
325
330
329
324
324
330
329
324
322
328
330
324
322
326
328
325
324
328
330
326
322
328
332
327
323
327
330
327
324
324
330
330
326
324
331
329
324
321
324
357
384
310
319
322
317
317
322
326
322
321
326
328
325
322
329
333
332
326
330
335
334
331
334
339
339
335
336
344
342
339
339
346
347
344
344
350
353
351
347
353
357
354
344
360
421
378
343
354
359
358
355
359
363
363
358
362
367
368
363
365
371
371
365
365
371
373
370
368
374
375
372
367
370
372
368
365
369
371
367
365
371
374
367
363
364
366
359
357
405
398
348
347
349
354
353
348
347
350
348
343
340
344
344
339
334
337
337
333
328
332
332
328
322
324
326
323
316
317
321
317
313
311
313
314
311
310
313
314
308
307
303
316
374
315
294
302
298
296
298
301
298
294
297
299
296
292
295
297
297
292
293
297
296
292
292
296
295
290
290
293
294
290
291
295
297
291
289
294
299
293
290
295
298
296
285
299
362
312
281
289
296
296
293
295
301
302
296
297
302
303
298
301
306
307
303
302
308
310
308
306
310
313
309
308
311
315
314
309
313
317
314
310
314
321
319
312
316
319
320
306
321
389
327
304
308
314
317
313
313
317
320
315
312
318
320
318
315
319
322
320
316
319
325
323
320
322
325
324
320
322
326
326
323
321
327
330
325
323
328
331
326
324
322
345
396
314
316
323
324
321
326
330
328
325
328
332
330
326
327
334
330
325
327
330
331
327
327
333
333
328
329
333
335
329
327
331
333
330
329
333
334
333
327
331
329
333
377
361
319
324
322
325
329
330
324
325
330
330
324
324
329
331
327
325
328
330
326
323
328
330
327
324
326
330
326
322
325
329
327
322
325
330
330
325
325
330
328
324
317
338
405
320
311
321
323
320
318
322
326
322
318
323
324
322
318
324
327
323
319
323
327
324
320
321
323
323
317
320
323
321
317
317
321
323
318
316
318
323
320
318
320
325
319
316
312
325
375
334
305
315
314
311
315
320
319
314
316
319
318
315
317
322
324
318
318
323
322
318
316
321
323
317
315
321
323
319
318
320
324
322
318
320
324
326
323
324
331
329
324
322
328
365
369
311
322
324
322
321
326
329
323
323
327
329
325
323
328
330
325
321
325
329
327
323
325
328
327
322
323
328
327
323
323
328
327
323
323
327
327
321
322
328
329
323
322
325
327
316
327
395
338
313
314
320
325
323
319
322
327
326
320
325
328
328
324
325
329
329
323
323
329
330
324
322
325
326
322
320
323
326
322
318
323
325
323
320
322
325
324
321
325
326
327
322
323
323
325
363
366
313
317
315
314
319
319
314
313
316
318
315
312
315
320
317
313
316
319
316
313
315
318
316
310
311
316
316
311
315
318
317
313
314
317
317
311
311
318
321
314
313
318
319
313
309
342
372
301
304
309
314
313
310
314
318
316
311
313
318
318
315
315
320
318
314
314
317
319
316
314
318
319
315
313
318
320
318
315
318
320
318
316
320
323
320
316
318
322
313
330
387
311
312
311
315
319
320
315
315
320
321
317
315
321
323
319
315
319
320
317
318
322
324
322
318
320
325
324
319
321
325
325
320
321
325
327
324
324
327
329
325
324
319
335
395
329
313
321
319
316
320
324
321
318
320
323
321
316
322
326
324
318
320
325
324
320
320
324
324
320
319
322
323
319
318
321
323
318
317
321
322
317
313
317
322
321
316
319
322
318
314
308
336
393
305
307
313
314
309
312
316
317
312
313
317
318
313
313
320
322
318
314
319
322
320
315
320
324
319
315
318
321
321
317
316
322
321
318
319
322
322
317
320
324
323
319
317
321
315
330
384
321
310
314
315
319
322
320
316
320
325
323
320
324
327
328
324
323
326
323
320
320
325
325
320
319
323
324
320
318
321
324
321
318
322
324
319
316
321
325
321
316
320
323
321
311
335
396
315
309
315
323
325
320
321
326
326
321
321
325
326
320
321
324
325
322
320
324
326
323
320
323
325
324
318
322
324
324
318
320
325
324
319
320
324
324
316
318
325
325
319
318
321
322
313
314
357
368
305
306
312
314
311
308
312
316
314
309
312
313
311
309
311
339
319
316
316
320
320
314
315
319
320
314
311
318
319
314
311
317
319
314
311
315
322
320
316
317
322
319
312
316
357
371
303
310
316
317
315
315
320
322
316
314
320
321
318
317
323
327
322
321
325
327
327
323
328
332
329
327
331
336
335
331
335
340
339
335
337
341
342
338
342
346
345
343
342
347
340
352
420
352
342
344
343
349
352
349
345
350
355
351
347
349
353
352
348
348
353
352
349
351
353
353
348
348
350
351
346
344
349
352
347
343
346
347
345
342
347
348
342
338
339
340
329
348
403
325
325
320
321
324
322
317
315
318
317
314
311
315
315
312
309
314
313
310
307
310
312
308
304
305
308
305
300
302
305
304
298
298
301
301
299
297
300
299
293
293
288
306
370
288
285
288
285
282
287
288
285
282
286
287
291
304
308
315
304
299
302
306
305
300
302
305
304
298
299
303
304
300
298
303
305
300
300
306
307
303
302
306
310
299
316
376
304
298
299
303
308
308
304
307
312
311
307
308
314
316
312
311
316
318
314
312
317
320
315
312
317
320
318
315
320
322
320
315
320
326
325
320
323
328
326
315
328
387
339
308
317
325
325
322
322
326
329
325
324
329
332
328
327
330
332
329
325
329
331
331
325
328
332
330
325
327
332
330
326
326
331
330
327
330
333
331
327
326
331
324
335
397
335
319
322
322
327
329
327
323
328
330
328
322
326
330
330
325
326
331
330
325
325
330
329
323
324
327
330
324
323
327
329
326
322
327
330
325
322
324
330
328
326
326
329
327
323
321
324
358
373
309
319
320
318
317
321
323
318
317
322
323
317
317
322
325
319
315
319
323
318
315
318
320
319
314
316
319
318
313
317
320
318
312
314
319
317
313
311
316
317
315
312
318
319
314
312
311
341
373
298
306
313
312
309
314
319
318
313
317
321
321
317
322
350
343
337
337
340
340
334
334
340
341
335
336
342
342
337
334
340
343
338
333
337
338
336
334
340
341
339
333
336
340
331
344
407
331
323
322
325
330
331
326
326
330
332
328
327
332
335
332
326
330
332
330
325
331
333
330
325
327
332
330
326
328
331
331
326
328
331
332
327
326
329
329
323
325
331
333
326
325
328
330
318
325
382
346
310
313
318
322
318
324
328
328
328
323
325
331
330
327
327
332
332
329
328
334
333
331
328
333
334
330
327
331
332
329
327
330
333
331
327
330
334
333
331
334
337
337
333
334
331
344
390
350
325
333
329
330
333
335
330
330
333
337
333
331
337
340
336
332
332
336
333
331
331
336
333
329
330
335
336
330
331
335
336
331
334
337
338
334
331
336
337
334
332
334
337
332
329
323
342
402
328
316
324
324
318
322
327
326
322
324
327
327
322
323
329
330
325
325
329
333
328
327
332
333
329
327
332
336
332
329
332
336
333
330
334
338
334
329
332
339
339
332
332
337
337
329
332
374
387
322
331
334
339
336
335
341
343
339
336
339
343
339
335
340
342
341
335
337
342
341
338
337
341
340
335
337
341
343
337
336
340
341
336
335
338
340
334
333
339
340
335
330
334
336
327
331
386
370
321
320
328
331
332
326
328
331
332
326
327
331
332
327
329
333
333
329
330
335
337
335
332
338
339
336
333
337
338
338
336
339
343
340
337
342
348
348
344
346
349
348
336
357
430
350
339
340
347
349
345
344
351
353
351
350
353
358
357
356
361
363
361
359
362
366
365
361
361
366
365
360
359
363
362
358
359
363
363
356
355
357
362
358
351
355
357
354
343
359
430
357
334
341
345
340
337
337
339
337
334
331
333
333
329
329
336
337
332
330
333
336
330
328
332
331
327
324
327
331
325
324
326
329
326
322
326
332
329
325
328
333
334
322
349
416
336
333
330
332
331
324
320
320
320
314
310
311
312
311
308
312
315
313
308
309
309
308
303
302
306
304
301
301
305
304
298
299
304
308
303
301
305
306
303
295
308
360
323
287
297
302
299
296
301
305
303
300
301
307
307
303
305
310
310
305
307
311
311
308
308
311
316
312
312
314
318
316
313
320
326
324
318
323
326
324
318
324
364
369
308
320
324
327
322
320
324
326
321
321
326
328
325
325
329
329
325
323
329
329
326
324
328
331
327
324
327
330
327
324
329
334
334
328
331
334
334
323
333
392
355
316
324
329
330
328
327
332
332
330
329
331
334
331
329
333
336
332
329
332
336
334
330
332
335
334
330
331
335
335
329
328
332
335
334
331
334
335
331
329
324
344
408
325
319
326
325
322
327
331
329
326
328
331
330
324
324
327
330
322
323
328
328
323
321
326
326
321
320
322
327
324
322
328
329
323
323
324
327
327
328
326
329
329
321
322
318
338
388
323
315
322
321
322
327
328
324
321
325
327
324
324
330
333
330
327
329
334
330
327
330
334
332
328
332
336
334
332
333
337
336
332
333
337
337
335
336
340
338
336
333
338
332
337
387
362
325
328
326
330
335
333
329
332
336
335
330
332
338
335
332
333
335
334
330
330
333
334
329
329
333
333
331
328
332
334
331
329
332
333
331
328
330
332
330
326
330
332
330
325
328
330
330
325
327
330
331
325
323
328
331
331
324
329
329
325
322
321
355
388
310
317
320
316
314
316
320
318
313
315
317
316
314
315
320
320
317
317
320
319
316
316
319
321
316
314
319
321
318
315
321
323
322
319
323
326
324
320
324
329
326
322
324
327
326
322
324
331
331
326
327
330
329
318
341
401
322
317
320
325
328
326
322
327
328
326
322
326
328
328
325
327
331
330
326
327
331
331
327
328
330
331
324
326
329
330
328
326
329
332
328
325
330
331
330
326
330
333
330
327
330
333
331
326
327
329
329
326
328
331
330
326
326
319
340
401
320
316
322
318
315
320
322
319
319
319
324
321
318
323
327
323
320
323
325
326
320
322
326
324
322
321
325
325
321
322
325
327
323
322
326
328
326
323
327
329
326
323
326
328
328
328
330
332
331
328
328
325
334
380
345
315
324
320
322
328
329
324
324
328
330
326
325
329
330
329
324
326
328
326
323
324
329
326
322
324
328
327
323
326
331
329
325
324
330
329
323
323
327
331
328
325
329
332
327
319
330
381
360
310
324
329
326
323
327
329
327
325
327
331
330
325
326
331
330
325
324
328
328
324
323
327
328
324
322
324
326
325
322
325
328
325
321
324
325
323
321
323
325
323
320
321
317
331
383
329
310
318
314
315
321
321
320
318
323
325
321
321
326
329
332
324
326
330
328
326
327
332
331
327
330
332
333
329
330
333
332
329
329
332
332
332
330
331
335
329
328
326
333
375
376
321
329
327
324
328
332
332
325
330
333
331
326
330
335
334
329
330
332
335
330
330
333
333
329
328
332
333
330
327
331
333
336
330
331
345
346
329
331
334
332
326
323
330
370
370
311
322
323
319
319
324
324
320
320
323
324
320
318
325
327
324
320
323
326
324
320
322
325
322
319
320
324
322
317
317
322
323
319
317
321
321
318
320
324
323
321
320
324
318
322
369
347
311
317
314
319
323
321
317
321
326
326
321
325
331
331
328
329
333
334
330
332
337
337
334
333
339
341
338
337
342
344
342
340
344
349
350
347
350
356
359
350
353
350
369
418
343
343
349
346
345
351
350
345
345
350
349
345
343
349
351
346
339
343
344
340
335
338
340
336
332
336
339
361
356
348
350
349
343
343
346
344
338
340
344
345
343
339
338
340
335
332
328
342
402
339
317
324
322
318
322
325
322
318
320
322
320
315
316
322
323
317
317
321
322
318
317
319
320
315
315
318
318
314
313
315
318
314
310
315
317
313
311
314
316
314
309
311
315
316
312
313
318
318
313
311
314
314
312
312
313
315
311
308
304
324
386
313
302
308
307
304
308
313
310
306
308
312
312
308
310
316
316
312
314
320
320
316
315
318
320
316
314
318
320
318
316
320
323
320
317
320
323
322
318
321
323
324
320
322
328
326
322
325
331
328
325
325
329
323
332
384
341
317
322
323
328
331
328
325
331
334
331
328
333
335
335
332
331
335
334
331
333
337
336
332
332
335
337
332
333
337
339
335
336
340
337
334
332
336
340
336
332
337
339
336
332
337
341
337
334
335
341
333
337
400
357
327
329
331
337
339
331
330
335
337
335
332
333
336
332
332
335
336
333
330
333
336
335
332
333
337
336
331
334
339
337
333
333
337
337
333
332
338
339
333
332
332
336
334
334
334
337
335
331
326
338
393
347
316
326
326
321
324
329
330
323
323
328
328
323
323
328
330
325
323
326
329
326
323
326
330
326
322
326
329
327
323
327
329
326
322
325
330
327
322
322
327
326
323
322
328
326
322
321
320
350
388
308
317
322
321
320
323
326
324
320
323
326
324
323
328
333
331
326
327
330
330
326
327
331
332
327
327
332
333
329
328
332
332
330
329
331
333
329
327
334
336
333
330
332
333
327
350
398
320
323
322
326
332
331
326
326
332
332
330
329
332
335
332
328
332
334
329
326
331
334
328
325
329
332
329
324
328
330
328
326
329
333
332
328
329
333
332
327
327
335
332
327
326
331
331
323
349
402
320
320
321
326
328
327
323
327
329
326
324
326
330
329
326
328
331
330
326
327
331
332
325
325
329
331
327
325
330
333
328
325
330
330
328
323
329
332
330
325
329
330
327
324
326
330
325
321
323
329
327
324
325
329
322
326
371
363
316
319
320
323
325
322
318
322
326
323
320
322
326
327
324
326
329
328
323
326
329
328
324
324
328
329
324
324
329
329
325
324
330
329
329
326
327
331
329
326
327
331
330
326
328
332
334
332
331
334
336
333
326
350
407
324
321
327
332
330
329
331
333
333
331
333
334
334
333
335
337
336
334
334
337
338
334
337
337
336
334
334
337
337
335
334
334
336
336
333
336
336
333
333
337
339
337
334
334
335
337
334
333
337
334
330
326
337
389
357
316
327
327
323
324
328
326
323
323
328
328
323
321
327
330
326
324
327
331
327
322
326
329
326
322
323
328
325
322
324
329
326
322
324
330
328
324
325
329
327
322
320
325
330
323
322
326
328
323
314
342
396
311
310
318
323
318
316
319
323
322
318
320
324
325
320
322
326
325
322
322
326
327
322
322
326
326
325
324
328
330
327
324
330
333
331
327
331
333
332
329
333
336
334
330
331
335
326
342
402
326
322
323
325
330
331
329
328
332
333
330
328
333
338
335
330
332
336
334
331
336
338
338
334
334
339
336
332
333
336
338
333
334
337
337
333
331
335
336
332
329
333
332
330
328
335
336
334
329
332
334
326
349
402
321
323
320
322
328
325
322
323
327
326
321
320
325
325
322
321
326
327
323
321
325
328
326
324
327
329
326
324
326
330
328
322
325
328
328
325
326
331
330
325
325
329
330
324
323
325
327
325
325
326
328
324
323
322
327
362
367
309
319
318
316
319
324
321
317
320
322
321
318
319
325
327
322
322
325
327
320
320
324
326
321
321
325
326
323
321
324
328
325
321
325
329
327
322
324
329
328
323
324
328
331
326
325
331
331
327
320
348
403
319
318
326
331
328
326
331
333
330
328
332
334
332
331
335
337
334
329
331
334
335
329
330
333
336
329
328
335
333
329
328
332
334
331
330
332
337
333
330
332
334
330
330
333
334
333
325
327
322
337
399
327
314
321
318
320
323
324
321
320
324
325
322
320
324
329
326
324
327
328
327
323
327
328
327
322
326
329
324
320
322
325
324
320
321
326
326
322
322
325
326
324
322
324
325
322
321
315
330
380
332
308
318
318
315
319
323
321
317
319
323
323
318
322
328
325
321
321
326
326
323
322
327
329
324
324
327
329
326
323
327
330
327
321
326
329
330
326
328
331
330
327
320
340
394
329
313
323
327
323
325
328
328
325
325
330
332
329
328
332
332
329
325
330
331
329
324
328
331
330
326
328
333
331
326
331
333
331
325
327
330
333
328
325
331
332
329
320
339
400
333
310
320
325
324
319
324
328
325
322
326
329
328
323
327
331
330
323
325
328
329
324
325
329
331
324
324
329
330
326
324
327
330
326
325
326
329
326
321
325
332
331
325
328
330
330
319
328
384
355
307
317
323
324
320
319
324
324
320
319
323
326
321
321
325
327
323
320
323
325
322
320
323
325
323
319
321
324
322
319
321
324
324
318
319
323
323
320
320
324
324
322
320
323
325
323
319
322
326
323
320
324
325
324
320
315
337
394
320
311
322
322
318
321
324
325
320
322
325
328
324
324
328
330
327
325
328
331
326
324
328
331
326
324
329
334
331
328
330
335
332
328
330
333
334
330
331
336
336
329
330
333
338
334
331
336
337
334
323
341
405
338
314
322
326
325
322
324
328
326
320
324
329
327
324
326
332
330
324
325
330
332
326
326
329
330
326
323
328
329
326
324
327
328
324
322
325
328
325
324
325
329
327
322
324
328
326
321
321
329
331
325
324
328
330
317
327
390
351
313
317
322
324
321
321
323
327
324
320
322
326
324
321
324
326
325
319
321
325
324
320
319
323
324
320
320
322
323
319
318
321
324
320
318
320
322
321
317
321
323
321
317
323
327
324
320
321
327
317
329
384
334
311
315
316
321
323
320
318
323
324
320
318
326
328
326
325
327
328
326
322
324
327
326
320
326
329
327
324
326
329
330
326
326
329
332
328
329
330
331
327
325
331
332
329
326
331
334
322
338
403
327
318
319
324
329
328
324
325
328
329
324
325
328
332
328
326
330
334
328
326
329
332
328
327
330
332
329
327
329
331
327
323
327
330
330
326
327
332
329
325
327
331
330
324
326
331
332
327
325
328
328
324
324
330
328
327
322
325
319
333
398
328
315
318
316
317
323
321
317
320
323
319
316
315
322
323
321
321
326
329
322
321
326
328
325
322
324
327
324
321
324
328
326
323
326
328
326
323
324
327
326
323
324
330
330
325
327
331
331
328
325
330
330
330
325
329
332
329
322
326
361
377
306
318
325
324
321
324
328
328
323
324
327
327
324
326
330
331
327
326
330
330
326
324
328
329
328
325
328
329
327
326
329
333
330
326
328
332
331
325
329
332
329
324
326
332
332
327
326
330
332
320
336
404
331
315
318
324
327
325
322
325
329
326
323
327
331
329
326
329
333
330
326
327
330
330
327
326
330
332
327
326
329
330
325
323
327
328
325
323
326
328
324
321
324
327
323
321
324
330
325
323
326
329
322
324
372
364
311
315
315
320
320
315
315
319
321
318
314
316
322
318
320
323
326
322
320
322
325
320
320
320
322
322
318
319
322
322
317
317
322
322
316
316
321
320
318
316
320
324
322
318
322
325
321
313
326
381
339
304
314
320
322
315
317
323
321
319
320
325
327
322
321
326
325
319
320
324
324
332
332
336
337
335
332
336
340
335
332
336
339
337
333
336
341
339
333
334
338
337
336
335
337
337
333
331
330
358
400
317
324
329
326
325
330
330
328
324
327
330
329
325
328
333
332
325
329
333
332
330
330
333
333
329
329
332
335
329
328
332
334
330
328
332
334
330
327
331
333
332
328
331
332
330
329
329
331
329
327
331
332
332
326
328
325
329
368
366
314
323
320
320
325
327
322
321
323
324
322
320
322
325
326
322
325
327
326
323
325
327
325
321
322
325
325
320
321
324
324
321
319
322
321
320
317
321
321
319
319
320
323
321
318
323
324
324
320
320
323
318
339
383
309
312
312
314
320
321
316
316
320
323
318
316
322
324
320
318
319
322
318
315
320
324
323
320
325
331
328
326
327
332
332
328
329
332
334
328
328
332
333
330
331
332
334
331
331
325
342
399
332
316
327
328
325
330
333
331
327
330
330
330
327
327
333
333
327
328
330
332
325
326
331
332
326
325
329
331
327
326
330
331
328
326
328
331
329
327
329
332
329
325
330
334
331
326
329
332
323
329
385
353
313
318
319
323
325
322
319
324
324
321
318
321
324
322
321
324
327
323
320
323
327
324
319
322
326
325
320
321
324
324
321
320
323
324
320
320
324
324
321
319
323
324
320
315
318
324
321
316
318
322
321
310
333
400
315
304
313
315
316
312
312
317
316
311
311
316
319
317
317
320
322
318
317
318
320
318
316
320
321
320
315
318
321
320
317
318
322
320
315
318
323
322
318
324
328
329
327
329
331
330
327
326
328
325
347
392
317
320
320
320
323
326
324
321
325
327
325
321
327
331
330
326
325
328
326
326
326
330
331
327
326
328
330
327
325
329
331
329
327
330
332
330
327
329
332
331
324
328
332
333
327
327
330
329
325
318
341
405
320
313
322
324
322
321
326
326
322
321
324
326
322
319
323
327
322
319
321
324
323
319
320
328
326
323
325
327
328
323
323
325
326
323
322
326
328
325
321
325
327
325
322
324
325
323
323
323
326
324
321
322
323
352
387
313
321
322
317
320
323
325
321
321
325
325
320
320
324
327
324
322
324
327
324
322
326
329
327
323
326
328
325
323
325
328
325
320
323
327
329
325
325
327
327
322
325
328
333
327
326
330
332
327
321
350
392
313
315
320
327
324
323
325
327
325
322
323
326
326
322
325
327
325
320
321
324
325
320
320
324
325
321
321
323
325
321
320
325
326
324
322
324
327
324
320
322
325
322
322
321
323
324
320
320
315
332
389
318
307
315
314
313
319
321
317
316
318
320
317
315
321
325
323
320
323
325
323
318
320
324
322
318
319
324
321
318
318
321
322
317
318
321
322
318
315
319
320
316
314
319
318
315
315
321
321
321
316
319
318
316
351
371
307
313
311
312
316
316
313
311
317
318
314
314
317
320
320
318
319
322
318
315
318
321
317
313
317
317
317
313
315
318
316
315
318
319
319
314
315
318
317
312
313
318
322
314
314
316
318
313
310
346
376
302
304
310
315
313
311
315
317
319
313
316
320
319
316
318
323
320
317
317
323
322
319
319
322
324
321
321
326
326
325
322
325
330
328
324
326
330
329
329
328
332
332
328
328
335
368
383
318
330
331
329
331
336
337
333
336
338
339
336
335
340
343
338
335
337
339
336
333
335
338
334
329
330
335
334
333
336
339
338
335
335
338
338
333
330
336
338
332
329
334
332
328
319
332
389
348
305
317
322
320
317
318
322
320
315
317
323
320
317
320
324
324
319
319
321
323
318
320
323
324
322
321
325
328
324
321
325
327
324
322
323
326
326
322
324
327
324
322
327
331
328
322
324
326
317
324
380
342
307
312
313
315
318
314
311
314
314
312
310
312
314
314
313
315
316
315
309
313
315
313
310
310
313
313
309
308
311
312
308
308
312
313
311
307
312
310
306
306
311
313
308
306
309
312
303
313
370
317
295
298
303
308
308
304
305
309
310
306
307
310
312
309
309
312
313
308
307
313
315
311
308
312
316
315
312
313
317
315
311
314
316
316
312
314
316
316
311
312
316
318
316
315
319
321
318
315
315
347
381
302
310
312
310
308
314
315
315
312
316
319
317
312
316
320
320
314
317
319
320
316
315
320
319
315
313
316
317
315
313
318
320
316
314
318
320
317
316
319
322
320
317
317
319
317
314
319
319
320
314
317
314
317
352
359
308
315
311
311
315
316
311
311
314
317
312
309
310
314
312
310
311
314
313
309
309
315
313
311
312
314
315
324
337
341
343
341
340
344
348
346
345
347
348
343
339
341
344
344
341
343
345
343
339
335
347
392
363
322
333
333
330
332
335
336
333
332
335
337
334
334
337
340
336
331
335
337
334
333
336
338
335
332
333
337
334
331
335
337
338
333
334
338
338
333
334
337
338
337
336
338
341
338
336
331
348
403
342
322
331
330
327
331
333
332
328
332
333
332
328
331
335
334
331
332
335
332
330
332
336
336
331
330
333
332
331
328
333
336
332
329
332
335
331
329
332
336
332
329
331
336
335
329
331
335
335
320
339
409
332
317
322
327
328
324
323
326
329
325
323
326
328
326
324
329
332
328
325
328
330
329
325
328
332
330
326
327
329
330
327
325
332
332
328
328
331
331
328
327
328
332
330
329
331
335
331
327
327
331
366
373
314
325
325
322
324
328
327
324
326
329
331
326
326
332
334
329
327
330
332
328
326
330
332
329
326
328
330
328
325
327
331
328
323
327
330
330
325
325
329
330
328
324
330
331
328
325
328
361
385
314
324
328
326
326
329
332
329
324
328
332
329
326
332
336
334
328
329
333
332
330
331
334
334
329
329
333
333
329
329
333
335
333
329
333
334
329
327
331
333
330
327
331
335
335
330
332
334
333
321
336
403
344
315
321
328
327
325
324
327
330
326
322
326
327
326
325
328
330
327
324
329
332
330
327
331
333
331
328
330
332
332
326
326
332
331
326
326
329
331
328
326
329
329
326
325
331
330
329
324
328
329
326
356
384
317
323
320
323
326
327
323
322
325
324
320
321
325
326
323
325
327
327
324
323
327
329
328
324
327
330
328
326
329
331
330
324
328
330
329
324
325
331
332
329
327
333
333
328
324
330
368
373
311
322
326
324
323
329
330
328
327
329
332
329
327
329
334
332
327
330
334
333
329
331
336
335
330
328
333
334
330
331
333
334
329
330
333
335
332
330
334
333
332
329
336
336
334
329
333
334
328
350
402
321
323
323
325
328
328
325
326
330
330
327
326
329
330
329
328
332
334
331
329
331
334
333
330
331
334
333
328
331
334
332
327
331
333
331
327
326
329
330
327
325
329
330
327
328
328
330
328
326
320
334
385
347
312
322
321
318
322
325
323
319
320
324
322
319
320
324
328
322
323
327
327
323
325
329
330
326
325
328
329
327
325
328
330
328
323
326
329
327
324
327
331
330
325
326
329
330
328
326
332
332
327
319
340
398
327
313
323
326
324
322
327
329
327
321
326
328
327
324
327
330
327
323
324
328
329
325
326
331
331
327
328
330
332
328
327
331
332
329
327
331
332
330
327
330
333
330
327
330
334
335
329
331
334
332
322
330
385
363
313
321
326
328
323
325
329
330
326
325
328
329
327
326
331
331
329
326
329
332
329
327
328
329
328
324
328
331
330
326
328
331
330
327
326
330
332
327
326
329
330
328
325
326
329
329
327
329
332
330
326
318
339
404
324
315
323
323
318
322
325
325
320
320
325
323
319
319
325
327
323
321
326
327
323
323
324
325
324
321
325
327
324
321
324
326
327
322
326
329
326
321
324
328
328
326
324
328
330
326
324
329
329
326
317
338
399
318
312
320
323
322
319
322
327
326
320
325
328
326
324
325
329
328
322
324
327
328
324
324
328
328
324
323
328
328
324
323
326
328
326
324
326
326
326
324
330
331
330
327
329
331
324
344
397
319
320
320
323
326
328
324
325
330
331
328
326
330
332
330
329
332
333
329
328
331
331
329
326
329
331
330
327
328
330
331
327
327
330
331
328
328
329
330
326
326
328
329
329
327
328
331
329
326
324
331
374
367
314
322
321
320
320
324
324
323
323
326
326
322
323
326
328
326
324
328
328
327
324
326
329
328
325
326
326
326
325
326
327
326
324
325
327
326
324
326
328
327
324
323
327
327
324
323
327
328
324
325
325
327
317
334
401
330
313
320
321
323
322
320
322
325
322
321
321
322
322
322
323
325
324
323
323
325
327
325
324
326
327
324
323
324
326
325
323
324
325
325
322
324
326
325
323
324
324
324
324
324
324
326
324
324
320
328
368
355
311
320
318
319
322
325
323
321
325
326
325
323
327
330
329
325
327
329
326
324
327
329
328
324
325
327
328
324
325
328
327
324
326
330
329
327
327
331
330
327
326
330
330
327
325
326
330
329
324
326
329
328
317
334
400
334
310
317
320
322
321
323
324
326
324
323
327
326
322
321
327
327
325
324
327
329
326
324
326
328
325
323
323
327
327
323
324
327
327
322
323
328
328
325
325
329
329
327
325
328
329
326
327
330
328
326
324
325
319
336
398
323
314
318
315
316
320
320
315
317
320
320
318
318
323
324
321
320
322
323
320
319
323
324
322
320
325
326
322
320
321
324
321
319
321
323
321
320
321
322
321
319
324
324
324
322
321
323
320
346
385
310
316
316
317
323
326
322
322
326
327
326
322
327
332
329
327
327
329
329
326
327
330
331
327
327
331
331
328
327
330
330
327
326
330
331
328
327
329
329
327
325
330
330
328
326
328
331
321
340
405
321
317
318
320
325
324
321
322
327
325
323
321
324
325
322
323
327
328
325
325
326
328
326
323
325
326
324
321
323
328
327
323
323
326
325
322
321
325
324
320
321
326
329
325
323
326
327
324
314
333
402
326
310
318
322
318
317
319
320
320
316
318
321
322
319
320
326
326
322
323
326
325
321
321
325
325
320
321
322
322
320
318
321
322
321
319
322
324
321
318
322
325
320
319
321
325
323
321
323
326
324
314
341
391
310
310
314
318
320
317
316
320
321
318
316
321
322
320
320
323
323
322
317
320
324
322
318
319
321
321
319
320
324
323
320
322
325
327
322
322
327
328
323
321
325
326
325
322
323
326
324
321
315
337
394
318
309
320
321
319
320
325
325
322
324
327
326
322
323
328
328
324
323
326
328
325
323
326
327
325
321
325
328
326
322
325
326
326
322
323
326
325
322
323
326
326
321
321
324
325
322
320
324
327
325
321
326
326
322
312
338
401
315
308
315
318
318
316
317
319
319
316
319
321
336
334
338
341
342
336
338
340
340
334
336
336
337
333
333
336
335
334
333
335
337
335
332
333
336
333
331
334
336
334
330
332
333
333
328
330
335
332
328
328
332
326
333
387
351
315
322
321
324
327
324
321
325
326
325
322
326
329
328
324
326
328
326
322
322
327
327
324
324
327
328
323
325
329
330
327
325
328
330
328
326
330
330
328
326
330
335
332
328
332
335
332
323
349
400
319
318
322
327
328
325
326
329
329
327
327
330
332
328
328
330
332
329
327
330
330
329
326
330
332
329
327
330
333
331
328
330
333
334
331
330
334
333
329
328
333
334
331
328
331
332
330
319
335
397
346
312
322
325
324
321
323
326
324
323
323
328
328
325
327
331
329
325
325
331
329
327
326
330
330
326
325
328
330
328
325
328
330
327
323
326
327
326
323
325
326
324
320
327
329
329
324
325
327
320
343
396
316
317
315
318
321
323
318
319
321
323
321
317
321
323
323
321
323
326
324
323
324
329
328
324
327
329
330
326
327
330
329
326
325
329
329
326
325
326
329
326
325
325
329
327
324
325
325
353
385
312
322
323
320
324
327
326
323
323
326
326
323
325
322
324
320
320
324
326
323
321
325
328
324
322
324
326
324
324
327
328
328
324
328
330
330
325
328
333
333
328
331
334
332
325
332
380
369
317
324
329
331
329
327
329
333
330
327
330
332
331
329
332
334
332
326
331
332
331
328
330
332
330
325
326
328
328
326
327
330
330
327
325
329
328
327
324
331
333
329
325
329
330
322
347
397
317
320
318
320
326
325
322
325
327
328
323
324
328
329
327
329
332
332
328
327
331
331
328
327
330
333
329
328
331
333
332
327
330
333
334
329
332
332
333
330
335
338
337
334
335
339
330
348
408
330
323
326
327
331
334
330
330
334
336
335
332
337
340
338
335
338
340
339
337
340
342
343
340
340
344
344
340
341
346
346
342
341
344
347
343
341
342
345
344
341
342
345
340
338
331
349
406
338
321
332
332
329
329
334
332
328
329
331
332
328
327
331
331
325
322
325
327
322
320
323
325
321
318
321
323
320
316
318
320
320
315
317
318
317
314
314
315
316
314
314
316
317
312
313
307
321
380
320
299
306
306
303
309
310
309
305
308
310
309
305
307
310
311
308
311
315
314
312
313
316
317
312
314
316
317
316
313
317
318
315
315
317
320
316
313
318
320
318
314
318
322
318
317
317
321
313
317
367
353
304
308
310
313
315
310
312
315
315
313
312
316
319
318
316
319
321
318
315
319
321
320
315
319
321
320
317
318
323
321
317
319
321
322
318
318
320
320
318
321
324
323
319
319
321
318
341
389
311
314
316
316
322
323
320
318
321
324
322
321
322
329
328
324
324
326
326
326
326
330
331
328
328
331
334
332
330
332
334
333
330
334
334
332
331
334
334
333
331
337
338
335
332
334
336
327
345
407
328
323
323
324
330
330
328
327
330
331
328
326
329
331
331
329
329
331
330
328
331
333
332
328
328
331
330
326
326
329
332
327
327
329
329
326
326
330
331
328
325
327
327
329
325
327
330
328
325
317
336
400
325
312
321
321
319
319
322
321
318
319
321
321
317
316
320
324
320
317
321
321
319
318
322
323
322
319
322
324
323
319
322
326
326
322
324
328
326
322
323
328
331
324
327
332
332
322
329
378
358
311
319
324
330
326
324
328
330
329
328
331
333
331
328
333
335
335
331
334
337
337
332
333
338
338
335
336
338
340
337
336
339
342
339
338
339
341
339
340
341
343
343
336
339
331
350
410
330
324
328
327
329
333
332
329
329
332
331
329
329
332
332
330
328
329
329
326
324
327
327
326
320
323
325
324
320
321
325
325
322
322
323
322
317
318
321
322
317
317
320
320
310
317
371
346
298
304
308
310
308
307
312
314
312
310
310
314
314
310
312
315
312
308
311
314
316
313
312
314
314
313
312
315
315
313
311
312
316
317
316
316
319
316
312
314
313
341
376
299
307
310
307
308
313
312
311
314
316
314
313
313
317
318
315
314
317
318
314
313
316
319
316
315
318
320
317
315
318
320
320
319
320
321
320
316
319
321
316
339
389
310
312
313
316
319
320
316
316
321
322
320
319
322
325
323
321
323
326
324
319
324
327
326
323
326
328
326
325
323
326
327
329
327
328
330
327
325
325
328
364
370
312
321
319
320
323
324
322
318
321
320
320
318
320
323
323
322
323
325
327
322
324
327
326
323
321
324
323
320
319
319
319
317
317
321
319
316
315
318
315
322
370
346
307
313
312
314
318
317
314
316
320
319
315
316
321
323
320
320
324
324
320
319
324
325
323
320
324
324
321
318
321
323
322
318
323
329
326
322
325
330
329
318
329
382
344
307
318
322
323
320
321
327
328
324
325
326
328
326
324
328
329
326
323
326
327
326
322
324
331
330
326
325
331
330
327
327
331
329
326
329
334
333
328
327
330
323
329
383
348
315
320
320
325
328
325
325
328
331
329
325
328
330
330
325
326
328
329
329
328
331
332
328
326
330
329
325
323
329
330
328
326
330
331
329
325
329
332
332
328
328
332
332
329
321
341
406
328
314
323
326
321
323
327
328
324
325
329
329
325
323
327
330
327
324
326
330
330
325
326
328
327
326
328
330
329
327
329
332
332
329
330
332
334
329
328
331
334
331
331
331
333
331
329
328
326
353
388
314
321
321
320
322
326
323
320
322
323
323
317
320
324
324
320
320
323
323
320
319
322
323
319
318
320
323
319
318
320
322
322
318
321
325
323
319
321
325
328
322
323
325
325
319
319
354
379
307
314
320
323
322
320
323
324
322
321
323
325
323
320
324
324
323
318
322
326
326
323
324
328
326
323
324
328
328
324
323
326
326
322
322
324
324
321
318
322
326
326
321
322
323
324
310
332
398
318
307
311
317
314
311
312
315
313
312
313
316
316
312
314
317
318
316
314
317
317
317
314
318
320
317
314
314
319
320
316
320
323
324
320
322
325
325
319
319
325
328
324
325
329
331
325
321
352
397
317
319
324
328
325
322
325
326
325
322
323
327
326
323
325
330
328
324
326
329
330
325
323
327
327
322
322
324
325
323
321
324
325
322
319
321
326
325
321
321
323
323
319
314
333
387
328
307
318
318
316
316
321
320
317
320
322
324
323
320
325
326
323
320
322
324
322
318
322
323
322
320
323
324
323
321
322
325
325
321
320
325
326
324
321
325
326
320
319
317
343
395
311
314
318
317
315
319
320
318
315
317
320
319
315
319
320
319
316
316
320
320
316
316
321
320
315
316
319
319
316
315
320
321
318
315
320
321
317
315
319
324
320
316
318
323
317
312
342
381
305
308
308
314
314
311
310
313
314
311
309
313
314
312
312
315
316
314
312
316
318
315
312
313
315
313
310
312
314
314
310
313
316
315
314
312
316
316
315
313
318
319
324
325
321
343
400
318
320
326
325
323
327
330
329
326
328
330
329
327
329
333
333
329
330
334
334
330
331
334
334
330
331
334
335
334
332
336
340
335
332
332
336
338
336
336
338
337
333
334
332
359
400
322
328
330
329
329
331
333
330
331
336
338
335
337
339
343
336
334
339
340
339
338
341
341
339
334
336
337
335
332
334
335
337
332
332
334
335
329
328
332
334
333
331
335
335
333
328
331
368
384
315
324
326
325
323
326
327
326
323
325
326
326
322
324
330
328
325
325
327
329
327
325
329
330
327
325
328
330
327
324
328
329
328
326
329
329
327
323
327
331
330
325
329
331
329
323
328
374
365
312
320
325
327
324
323
326
329
326
325
327
329
326
327
329
330
330
326
329
331
330
327
328
330
329
326
329
332
331
328
330
333
334
330
330
332
334
332
333
333
336
331
329
327
330
364
374
316
327
325
324
326
328
329
326
327
329
328
326
328
332
332
325
325
329
328
326
325
329
329
327
324
328
329
327
326
329
331
329
326
328
331
329
325
330
334
333
328
330
332
332
323
330
378
369
312
320
325
325
321
322
327
328
324
321
326
329
325
325
329
331
328
325
328
328
327
323
325
329
329
325
326
329
328
324
325
328
330
327
324
329
332
330
327
330
329
326
323
321
350
399
314
320
324
324
322
326
328
327
324
326
329
328
325
327
330
331
330
326
332
331
329
328
333
334
330
329
331
332
330
329
331
335
332
328
332
335
335
330
332
336
336
330
326
356
403
322
324
331
333
331
331
333
335
330
329
333
333
331
330
333
334
329
326
330
329
327
325
329
332
329
326
327
330
330
326
328
331
329
325
325
327
329
326
325
330
326
324
322
327
322
328
380
352
312
318
318
320
324
322
318
321
325
323
320
322
324
324
321
321
325
325
320
321
325
324
319
319
324
324
323
320
323
323
323
321
323
326
324
322
325
327
326
322
322
325
326
324
321
325
325
322
318
322
362
369
308
318
321
318
317
322
324
321
319
325
324
321
320
324
326
325
321
324
326
325
321
323
327
326
321
324
326
324
322
324
328
330
327
327
329
330
328
326
329
332
327
326
331
331
330
328
335
335
333
330
333
333
327
351
397
322
323
323
325
330
329
325
327
330
331
327
327
330
332
330
328
328
330
325
324
327
328
326
324
325
327
327
323
325
326
326
323
324
328
326
322
325
326
327
322
322
323
325
325
324
324
327
323
318
319
324
363
361
306
316
316
314
315
320
318
314
318
322
320
317
318
321
322
317
318
323
322
319
318
324
323
320
318
322
324
320
316
321
323
321
319
322
324
323
320
322
326
326
322
322
324
325
321
325
326
326
322
324
326
323
350
390
319
324
321
320
323
326
324
322
326
329
326
324
326
329
328
327
328
332
331
328
330
334
333
328
328
332
333
329
328
331
334
330
330
333
334
331
330
333
333
331
330
336
335
334
331
333
334
329
353
394
321
324
322
323
326
326
323
323
328
327
324
324
328
329
328
327
327
328
325
322
325
326
325
321
324
327
325
321
323
325
326
323
324
326
324
321
323
328
324
322
321
325
317
328
385
327
310
314
313
318
320
318
315
320
321
320
317
320
323
322
320
320
322
320
317
318
321
322
317
317
320
319
317
317
320
320
318
319
321
320
318
320
323
321
319
319
323
317
324
374
349
310
314
313
315
318
319
315
316
318
318
315
316
318
320
316
315
318
318
315
313
318
318
316
313
316
318
316
313
316
318
317
311
314
315
315
313
314
315
315
312
313
306
323
384
313
301
307
306
305
309
309
305
304
309
310
309
306
310
313
311
305
308
311
308
306
309
311
311
308
311
310
310
307
309
313
313
310
309
315
317
313
310
316
316
312
305
316
364
341
300
308
312
311
309
312
314
314
311
313
317
317
314
318
320
318
313
314
318
318
314
314
317
318
314
314
319
319
316
315
316
319
316
314
320
320
316
315
317
321
312
323
384
325
306
309
313
316
316
311
313
315
316
312
313
317
318
316
314
316
317
315
313
317
319
317
315
317
319
316
315
318
321
319
315
317
319
318
313
316
322
322
315
317
320
319
309
313
360
358
298
304
310
312
310
310
313
316
314
311
312
315
314
311
313
317
314
309
311
316
315
312
314
316
316
311
313
316
318
319
320
325
326
323
321
325
327
322
321
327
331
326
323
327
328
324
319
349
390
314
316
319
324
321
318
319
323
323
320
321
323
325
321
322
327
326
322
322
326
328
326
322
326
328
327
323
324
327
325
322
326
328
328
323
326
330
326
324
326
332
330
327
326
330
329
322
349
390
318
319
320
325
325
324
321
324
327
324
321
323
326
325
323
325
327
325
322
323
328
327
323
323
327
328
325
323
326
328
323
323
326
328
325
324
327
330
327
322
326
330
329
322
327
330
328
316
327
383
354
311
317
322
322
319
321
323
324
322
321
323
324
321
320
324
326
322
321
325
325
324
321
323
325
321
318
323
326
324
321
323
325
326
321
324
326
326
322
321
325
327
326
326
326
329
325
324
321
332
385
346
314
323
321
318
322
324
320
317
319
321
321
316
319
323
323
319
320
322
321
317
318
321
320
317
317
319
319
316
314
317
317
315
313
315
319
316
312
315
320
319
312
316
318
316
313
311
343
377
300
307
312
315
312
312
316
318
314
315
319
320
318
317
321
321
319
315
320
321
318
316
319
321
320
316
319
322
320
316
317
323
322
317
318
323
326
321
319
324
323
320
310
328
389
323
304
315
318
315
314
320
320
320
315
318
322
320
317
320
324
322
317
317
324
323
318
318
321
320
318
318
322
322
319
317
321
322
321
318
319
322
321
320
322
323
322
317
321
316
338
394
314
313
314
313
315
321
319
315
314
317
319
315
316
320
322
319
316
321
322
320
317
320
321
319
317
321
323
320
317
320
323
321
318
320
323
320
316
319
325
322
318
319
323
323
310
327
397
325
305
309
314
317
313
311
315
317
314
312
312
315
314
314
316
318
316
313
315
320
319
314
316
318
318
313
314
317
316
313
312
317
320
315
313
317
318
319
314
317
321
317
312
308
328
385
306
302
310
311
308
311
313
312
309
311
314
314
310
310
316
316
312
309
313
317
312
311
315
316
312
312
316
317
316
312
313
316
315
310
313
319
318
313
313
317
316
312
304
329
388
307
300
309
313
310
309
313
314
312
311
315
316
313
310
315
317
313
309
313
315
314
310
312
315
312
308
311
314
313
310
311
315
315
315
315
318
320
318
319
322
323
320
317
318
317
344
380
308
314
314
313
316
317
314
314
315
318
317
313
314
319
319
320
317
314
318
320
317
314
316
320
320
315
316
320
320
317
317
321
318
316
315
318
317
315
314
320
318
315
314
318
316
312
339
377
305
310
308
313
316
315
311
315
316
315
312
314
317
317
316
316
318
318
316
315
320
320
315
315
318
320
317
316
317
320
317
315
318
320
316
314
316
320
320
315
317
321
319
313
313
346
375
301
308
314
316
313
314
318
317
314
313
317
319
318
314
319
320
315
314
317
319
318
314
317
321
317
315
317
319
318
314
317
320
319
315
316
320
319
314
314
320
320
317
316
318
320
310
335
387
309
308
309
312
314
314
309
312
317
316
312
313
317
317
315
317
320
319
315
315
318
318
314
314
318
319
316
315
318
320
316
315
317
321
318
315
318
318
316
314
320
320
319
315
316
316
315
351
365
308
313
310
312
314
313
310
311
314
316
311
310
314
315
314
312
314
315
314
313
316
319
316
311
315
317
315
313
315
320
318
314
315
317
317
314
311
315
316
313
315
316
318
315
314
312
321
362
347
304
312
310
308
311
315
312
309
312
315
313
310
313
318
316
313
313
318
317
314
314
317
315
311
313
316
316
312
311
316
316
314
312
314
317
313
310
314
320
318
314
316
318
317
308
316
368
343
298
306
312
313
308
310
313
315
311
311
314
315
312
312
316
317
313
309
312
316
313
310
313
316
313
311
315
318
315
311
314
318
316
313
315
318
317
311
312
319
321
313
314
318
318
309
314
364
354
302
307
311
315
311
311
313
316
312
309
312
315
314
311
315
318
315
311
315
317
316
312
312
316
317
312
312
316
316
313
313
315
317
313
310
314
320
317
312
316
318
315
310
315
359
355
298
308
312
313
309
311
315
315
312
312
316
315
311
314
317
317
312
312
315
316
312
311
315
318
314
311
314
317
314
312
315
317
314
312
317
321
318
315
315
318
310
319
377
324
303
304
307
312
314
311
310
314
315
312
311
314
317
314
312
314
314
311
308
314
315
312
308
310
312
312
309
310
313
312
309
311
312
313
311
313
314
315
309
308
311
306
326
382
303
304
303
304
306
310
306
304
306
309
307
303
307
311
310
307
308
310
308
306
308
312
312
308
308
312
312
307
307
310
312
308
307
310
312
312
310
312
314
311
310
303
321
384
314
299
307
306
303
306
310
308
305
306
309
309
306
309
312
313
309
308
312
312
309
308
311
313
309
306
310
312
310
309
312
314
310
307
310
311
311
309
310
313
313
308
309
304
322
376
306
299
305
302
326
333
337
334
337
341
343
340
340
345
347
345
341
344
347
345
341
345
347
345
341
344
346
345
342
345
349
347
345
345
347
345
341
340
346
348
345
343
349
347
343
343
340
369
412
332
337
340
338
333
336
340
339
335
337
340
337
336
338
343
342
337
338
341
340
335
338
342
341
338
338
343
344
340
339
342
342
342
338
341
343
341
339
340
344
340
340
342
343
341
337
338
333
350
414
337
330
335
332
333
336
337
334
335
338
340
335
334
338
340
336
333
337
340
335
333
337
340
337
336
339
340
337
334
335
338
338
334
337
340
341
337
336
338
339
335
336
342
339
336
334
339
337
335
368
383
324
328
328
332
334
335
331
333
337
335
330
334
338
338
336
334
335
334
331
331
335
335
333
332
337
338
335
333
337
339
336
333
336
337
335
334
335
335
334
332
337
336
337
333
335
336
332
360
394
326
331
328
331
335
336
331
331
337
337
334
334
339
341
339
335
338
339
336
332
336
338
336
333
334
337
336
332
334
338
337
333
335
339
338
333
334
337
337
335
335
337
339
334
332
336
340
338
334
337
338
337
328
334
382
373
320
329
331
330
326
328
332
331
330
330
334
334
331
332
338
336
330
332
336
334
331
331
335
336
333
331
336
337
332
331
335
336
334
330
334
335
334
332
335
336
334
331
335
336
334
331
333
334
330
351
399
323
326
325
326
330
330
327
328
332
335
329
328
332
334
333
330
331
332
331
326
328
332
331
328
330
332
330
328
330
333
335
330
331
334
334
331
329
334
335
333
330
333
335
332
326
333
375
372
316
325
328
328
324
329
332
331
328
331
334
333
331
332
337
336
332
331
335
334
330
330
333
335
333
331
333
336
332
330
335
336
333
329
332
334
333
334
334
337
335
331
332
329
352
403
321
326
328
326
327
330
331
326
324
328
330
327
326
330
332
329
326
327
330
327
325
330
332
331
328
330
333
331
326
329
333
333
329
332
333
331
328
330
335
333
329
328
332
327
329
378
361
317
322
321
324
328
326
325
328
329
327
324
326
329
329
328
329
331
329
326
327
331
329
324
323
328
326
324
324
329
328
325
325
329
330
327
326
330
334
328
327
328
332
324
326
375
366
316
320
322
326
326
323
326
328
330
325
326
330
332
329
329
331
329
325
325
328
327
324
321
326
328
326
325
327
329
325
322
324
328
325
321
325
331
330
323
326
329
328
319
324
371
368
310
318
322
324
321
320
325
326
322
323
326
327
326
326
328
330
327
324
327
328
328
324
325
326
325
324
325
329
328
325
327
330
329
325
325
329
329
326
328
333
332
327
326
329
326
323
359
376
316
319
318
322
324
322
320
322
326
324
320
322
327
326
324
324
326
326
322
322
326
326
323
324
327
328
324
322
327
327
325
324
327
329
325
322
324
326
324
323
327
327
327
322
324
320
327
373
350
313
321
318
320
324
324
321
321
325
326
322
322
326
327
324
323
326
326
324
322
324
326
321
319
322
324
322
320
323
324
323
319
321
323
322
318
323
326
325
322
323
327
327
319
349
386
316
317
318
322
327
324
320
327
328
326
323
326
331
328
326
326
329
327
324
327
329
328
321
322
326
327
324
323
326
326
323
321
328
328
324
324
324
327
326
325
329
332
331
326
327
322
342
397
317
320
320
319
321
326
324
322
323
326
325
321
324
327
328
322
321
324
327
322
321
325
328
324
321
325
326
323
322
324
326
325
322
324
327
324
322
323
325
324
322
328
326
326
321
322
321
322
358
366
310
316
314
314
321
320
317
312
313
316
312
311
314
317
316
313
316
318
317
314
318
320
318
314
317
321
321
318
319
323
322
317
319
321
323
319
319
321
323
322
324
325
325
322
320
321
324
350
375
310
318
319
317
320
323
323
320
321
325
324
318
320
324
325
319
319
322
323
320
321
324
325
322
320
323
325
324
322
328
329
324
322
327
329
324
321
325
329
327
322
324
329
329
313
332
398
333
310
315
322
322
318
319
322
322
319
318
323
325
319
320
323
323
319
316
321
326
322
318
319
322
323
322
323
325
325
324
324
327
327
323
325
327
328
323
326
328
328
324
324
328
325
324
358
374
312
316
317
321
322
318
315
319
321
319
317
320
321
320
319
320
322
323
318
319
323
323
319
320
322
325
319
318
323
323
322
320
322
323
317
318
323
326
323
320
323
324
321
314
345
387
311
309
315
318
320
317
317
320
321
319
321
322
324
324
324
326
327
323
317
323
323
321
318
321
323
321
317
319
326
320
318
320
322
319
318
321
325
321
319
321
322
318
316
351
373
306
309
311
315
317
313
314
316
318
315
314
317
317
316
315
318
320
318
317
318
320
320
317
319
323
319
317
318
322
321
317
318
322
320
315
316
322
325
320
319
322
322
316
317
358
375
309
312
318
320
319
314
318
319
318
316
320
320
322
319
320
320
321
317
318
321
320
317
316
322
320
319
320
322
322
318
318
322
322
320
317
322
321
318
317
323
324
320
319
320
323
313
263
340
324
304
311
314
318
320
316
318
322
322
318
318
320
321
319
318
321
321
317
315
319
322
321
318
321
321
319
317
319
322
320
317
318
322
322
319
318
323
321
317
320
322
323
317
317
319
321
313
335
385
386
331
337
341
344
341
340
343
345
343
340
343
345
343
343
346
347
345
342
341
345
343
338
336
340
341
336
336
339
339
338
335
338
339
336
335
337
337
335
333
334
335
333
332
336
336
335
332
333
334
329
349
404
326
326
324
325
329
330
327
327
331
332
327
328
330
333
330
329
331
333
329
329
332
333
332
330
332
334
333
331
331
333
332
329
331
333
333
331
330
333
332
330
330
333
334
330
329
332
331
329
327
333
331
330
328
329
331
324
355
392
320
321
321
324
327
323
323
325
326
326
322
323
325
325
324
325
329
329
325
326
327
328
324
321
326
327
326
323
325
327
324
323
326
329
329
324
327
330
327
322
325
327
325
322
324
329
326
322
324
328
326
317
344
391
314
314
317
321
326
322
323
326
327
326
324
325
329
328
325
327
329
326
324
326
327
326
322
325
327
326
324
323
327
327
324
324
325
327
324
324
326
326
324
324
329
327
325
322
324
323
325
367
364
312
318
315
319
321
322
319
320
325
322
318
320
322
324
321
319
323
323
320
319
321
322
321
317
321
323
321
320
322
325
323
320
323
327
325
321
321
324
323
321
322
324
325
319
321
319
343
397
314
317
320
318
318
320
323
321
320
322
324
321
319
324
326
324
320
322
326
325
322
323
326
325
320
320
324
324
321
321
324
328
326
326
327
329
326
330
331
332
327
326
328
322
342
396
316
317
318
319
323
327
324
323
324
326
323
321
322
328
328
325
324
327
328
323
327
328
328
326
327
330
330
327
327
329
332
327
323
328
332
331
324
330
330
328
320
328
377
361
311
322
328
328
326
326
330
330
327
325
329
330
327
327
331
329
325
324
329
331
328
325
329
331
329
326
331
331
330
327
330
332
329
328
332
334
331
329
327
330
326
321
361
380
316
318
318
324
324
322
321
326
327
323
320
324
327
324
324
324
326
322
319
322
325
323
320
322
326
326
320
321
325
325
322
323
326
326
321
320
322
323
324
322
324
325
322
321
317
326
373
353
310
318
318
317
320
322
320
317
320
323
323
320
320
327
326
322
321
324
324
321
320
325
323
321
322
325
326
324
321
325
329
324
322
325
327
325
318
322
324
325
320
323
326
325
320
315
343
392
311
312
321
322
319
319
322
324
320
321
325
327
325
324
327
328
324
320
323
326
323
320
323
326
323
319
322
325
326
320
321
323
323
320
321
324
323
320
321
325
324
321
320
325
323
316
343
385
311
314
316
320
322
321
318
322
325
323
320
323
326
324
322
324
325
325
324
324
327
325
322
322
327
327
323
322
325
326
322
320
324
323
322
319
322
325
322
320
323
326
324
323
323
326
325
320
320
320
351
382
307
315
317
315
316
320
319
318
316
320
321
317
315
318
321
318
316
319
321
320
318
322
323
340
322
322
325
325
320
325
328
327
324
325
327
326
324
323
326
324
321
324
326
325
322
322
327
319
333
389
327
313
318
316
320
324
323
319
321
325
321
318
320
323
324
321
322
324
322
318
319
323
324
320
321
324
325
324
321
326
327
323
322
324
326
322
321
326
330
326
323
325
328
324
318
352
384
310
312
317
321
320
319
321
325
323
321
321
323
325
322
324
327
325
322
323
325
328
325
321
324
326
324
321
324
326
324
322
324
327
326
323
324
326
326
325
327
328
329
323
324
318
335
396
326
314
321
322
320
324
327
323
322
325
326
323
321
324
326
326
321
323
326
325
321
322
326
325
322
322
326
327
324
323
328
329
326
326
331
330
326
327
333
334
330
328
330
332
322
329
403
354
316
320
325
329
327
324
326
328
327
323
325
327
328
326
328
331
330
328
327
330
331
327
325
328
330
326
325
328
330
328
325
327
328
328
326
329
329
328
323
325
325
326
359
366
310
318
317
319
322
324
320
321
322
323
321
320
325
327
326
323
324
325
324
321
325
327
323
319
323
325
323
320
323
327
327
321
323
327
329
326
322
326
328
324
315
332
393
330
308
318
322
320
319
323
323
320
318
321
323
321
319
322
323
320
315
318
322
320
316
317
321
321
316
317
320
319
318
317
343
343
339
324
330
332
329
329
332
334
325
328
386
361
314
325
326
329
336
329
331
334
332
329
331
333
333
331
332
335
336
332
329
333
334
329
328
332
333
331
330
333
336
332
328
331
333
330
331
333
334
333
329
331
332
326
349
396
321
324
323
326
328
330
326
326
330
332
329
326
331
333
332
329
331
331
330
327
332
335
332
329
332
334
333
330
333
336
336
331
331
334
338
335
332
334
334
331
330
324
344
399
323
320
327
324
323
327
330
327
324
326
329
327
326
328
332
330
328
329
332
330
326
327
330
330
327
328
330
332
328
329
332
332
328
329
335
336
331
330
333
334
325
333
394
352
320
323
328
329
328
326
328
331
331
327
328
332
332
327
327
331
331
328
326
331
331
328
327
332
331
328
325
329
331
330
327
330
333
329
327
333
335
331
330
330
333
324
332
393
349
316
320
321
324
325
322
324
325
328
325
324
328
329
329
326
327
327
327
325
330
332
330
324
328
331
331
327
330
332
328
326
327
330
331
326
327
330
332
327
328
332
333
327
321
348
405
321
319
326
329
328
326
330
331
328
327
329
333
331
328
332
336
333
330
329
331
333
329
329
330
332
329
329
332
334
332
330
333
335
331
330
334
340
340
335
337
342
338
327
343
401
345
320
328
334
335
332
331
335
335
333
334
336
336
334
335
338
338
334
333
336
338
333
329
332
333
333
329
332
336
334
330
332
334
332
327
330
335
335
329
330
333
331
326
324
359
395
316
322
327
330
326
325
329
329
328
325
328
331
328
327
331
332
330
324
326
330
330
325
329
330
331
323
323
327
328
325
326
330
330
326
324
328
326
325
327
330
331
329
326
328
321
328
384
343
314
318
318
321
324
324
318
321
324
322
318
319
324
325
321
323
326
327
324
322
326
328
323
322
324
327
324
321
326
326
325
320
323
326
326
325
326
325
327
323
326
321
328
370
350
314
320
320
320
326
327
323
323
326
327
325
323
326
330
326
325
326
328
327
323
326
331
329
326
326
331
332
328
329
331
329
325
327
333
333
328
330
333
334
324
330
377
372
316
322
329
332
328
327
332
333
332
329
331
335
333
331
332
335
333
329
330
332
331
329
328
332
332
330
329
332
333
328
328
331
329
328
327
332
329
326
324
327
329
323
345
396
317
320
318
322
326
326
321
324
325
326
321
322
323
325
322
321
326
327
324
324
328
328
324
321
324
326
322
320
324
326
322
316
320
324
323
320
318
323
324
322
320
324
325
320
319
320
356
374
306
313
317
315
314
317
321
317
315
317
319
317
317
320
323
322
319
320
323
322
320
321
323
323
320
320
325
323
320
320
323
324
322
322
325
324
322
322
328
326
324
322
325
326
318
338
393
315
314
315
321
324
324
321
324
327
327
323
325
328
328
326
327
327
328
326
327
329
331
326
326
328
331
328
326
330
331
328
325
327
330
328
324
326
331
331
328
328
332
331
327
321
334
389
343
312
321
325
322
321
324
325
322
322
324
325
322
320
324
327
324
320
325
329
326
323
326
326
327
324
325
327
328
325
325
327
329
326
326
328
329
326
328
331
332
327
327
330
322
339
401
322
317
318
320
322
324
323
319
320
324
322
318
319
323
321
320
320
322
324
321
322
325
326
323
319
322
322
318
317
322
323
320
317
322
324
323
319
321
323
322
314
321
365
361
306
313
317
317
313
313
318
319
315
315
317
318
317
316
319
322
318
316
322
323
319
318
321
323
320
317
321
323
322
320
321
323
325
322
324
328
325
323
323
319
343
399
318
320
319
316
318
321
323
320
317
321
323
320
316
323
325
322
320
321
326
326
323
325
327
328
324
327
331
331
326
328
331
331
330
332
334
334
331
329
334
332
351
400
324
327
328
327
332
334
334
331
335
336
335
334
334
339
339
335
337
336
338
336
336
343
344
341
341
345
346
342
342
346
345
343
344
347
349
344
343
344
347
337
344
401
364
327
328
332
333
330
326
328
329
329
323
322
326
325
322
321
320
318
314
312
313
314
309
307
310
309
303
300
302
302
298
294
296
298
298
293
291
292
289
284
279
292
350
301
271
281
283
281
283
286
287
286
285
289
292
290
289
296
297
296
294
297
300
298
295
299
303
301
300
303
306
307
304
307
312
312
309
308
313
313
314
315
317
320
317
318
317
324
362
350
309
317
316
316
318
319
319
318
320
323
321
319
322
325
325
320
321
324
326
321
321
325
325
321
320
323
324
320
318
322
322
321
319
324
328
326
322
327
329
327
317
330
379
351
309
318
323
323
321
332
335
337
334
335
336
337
336
337
340
341
337
337
338
337
334
332
336
338
334
332
334
339
337
334
335
339
336
332
335
337
333
330
334
337
335
324
351
403
323
320
324
328
331
327
327
330
332
326
326
329
331
330
327
330
330
330
327
329
332
332
326
327
331
330
325
327
330
334
329
330
332
336
331
332
333
333
331
333
334
334
331
328
332
324
341
404
326
322
326
324
327
329
326
323
327
328
327
324
325
328
328
325
326
327
329
326
325
328
330
327
323
328
331
329
327
331
333
330
329
332
334
332
330
334
334
333
328
329
332
323
342
402
326
320
322
323
328
330
327
327
329
330
327
325
329
331
328
327
329
331
329
325
330
331
328
325
328
331
330
327
330
332
332
328
329
332
332
331
330
332
334
330
328
327
330
364
370
316
323
323
324
329
329
327
322
326
328
328
325
327
330
330
323
327
327
327
323
324
327
326
322
322
328
329
325
324
327
329
325
323
327
331
330
325
329
330
326
320
327
376
367
311
320
325
322
320
322
325
324
321
321
324
326
322
323
327
327
324
324
326
327
324
323
324
325
324
321
325
328
327
325
327
332
330
325
329
334
332
327
327
331
332
320
334
399
339
313
319
323
324
324
323
325
326
322
321
326
329
325
323
325
326
324
322
324
327
326
323
322
326
325
321
324
328
328
326
325
329
329
324
325
331
334
327
327
330
331
324
321
356
383
312
318
324
326
325
323
326
329
327
325
326
330
329
327
329
330
329
325
327
329
330
328
327
330
331
326
327
330
331
328
325
327
328
327
325
330
329
328
327
327
329
322
344
390
316
318
317
322
325
324
322
323
326
325
322
323
327
326
327
323
326
328
325
324
326
328
324
323
326
328
326
322
326
329
328
326
327
330
329
323
326
329
330
323
326
329
329
318
327
386
352
310
317
323
324
322
321
324
326
325
322
324
326
324
323
325
328
326
322
324
329
327
324
324
329
327
324
323
327
328
324
325
328
328
326
323
327
326
320
320
326
328
322
322
324
325
315
323
380
343
308
312
315
320
318
316
317
322
322
317
318
320
321
318
320
322
323
320
320
323
326
322
320
324
325
323
320
327
328
326
323
327
330
327
321
323
329
330
328
325
329
327
321
321
322
353
377
305
317
321
320
318
323
322
320
320
322
325
321
320
324
328
324
319
321
323
322
319
322
324
322
320
320
325
325
323
322
325
324
321
318
323
326
324
322
323
326
322
318
317
327
373
344
306
315
314
311
314
318
316
316
315
323
324
322
323
327
327
322
322
325
324
320
321
324
326
322
320
324
325
323
321
324
326
323
321
323
326
324
321
320
322
323
319
325
324
325
321
324
323
323
357
369
311
318
316
318
321
323
320
318
322
324
322
319
322
326
322
319
320
324
321
319
320
321
321
318
320
324
322
319
320
322
323
321
320
323
323
320
319
326
326
322
320
324
324
315
324
377
343
310
315
318
320
320
318
320
322
321
318
321
323
323
320
321
322
322
318
318
320
321
318
318
321
321
318
318
322
321
321
319
320
320
319
320
323
324
324
319
321
322
320
349
374
311
315
312
316
320
319
316
318
322
321
317
317
320
322
319
316
320
319
317
315
319
322
320
316
320
322
320
317
319
323
321
317
320
322
321
317
320
326
324
317
318
322
320
308
320
382
337
303
309
315
317
313
310
315
315
313
312
313
316
314
312
315
317
315
312
314
318
318
314
315
317
317
314
314
317
318
314
315
320
319
316
314
319
323
320
318
321
322
320
316
316
349
379
304
313
318
317
316
320
323
323
320
322
326
324
323
323
328
329
323
324
328
331
328
327
329
332
330
328
334
335
334
332
337
341
339
336
340
345
344
338
342
346
344
336
346
401
369
331
338
344
344
341
341
345
346
342
340
344
348
344
342
345
344
341
336
336
338
338
331
332
332
328
325
323
321
313
308
309
312
312
309
309
312
314
310
308
313
311
308
299
316
381
316
294
304
308
306
304
306
309
307
305
308
311
309
305
308
313
311
308
307
311
310
307
307
308
310
306
306
309
310
306
307
309
314
310
307
309
308
306
307
312
313
310
307
310
312
301
312
376
317
296
298
302
307
305
303
304
308
307
304
302
307
308
308
307
309
310
306
303
307
310
308
304
309
310
308
305
309
311
312
306
310
313
311
308
311
316
313
311
311
313
313
307
332
379
303
304
305
310
313
310
309
313
315
312
310
311
315
314
312
316
316
314
311
312
316
315
313
312
317
317
314
315
320
318
316
315
319
319
316
317
321
322
317
316
317
320
311
332
390
310
307
307
312
316
316
312
314
317
317
314
316
320
320
317
317
320
320
317
316
319
322
317
314
318
322
318
317
319
320
318
317
319
322
320
316
317
320
320
320
319
322
322
318
320
313
334
395
315
310
315
312
311
316
318
314
314
318
320
316
314
318
321
319
315
318
321
318
317
319
321
318
314
318
323
322
320
320
322
322
317
317
321
321
316
318
323
323
317
316
320
321
312
317
369
356
306
311
315
315
316
314
316
318
316
313
314
318
315
312
314
317
315
310
313
318
318
313
313
317
318
314
313
317
315
314
314
319
321
316
315
318
322
320
316
317
319
316
305
328
386
310
303
308
312
313
310
312
316
316
312
311
314
315
314
312
316
318
313
311
316
317
314
311
316
318
315
312
316
318
318
314
316
317
315
313
317
321
317
315
315
318
317
310
339
377
305
307
308
312
314
313
310
313
316
314
309
312
314
314
312
312
312
312
310
312
316
314
310
312
333
323
319
318
324
325
321
322
324
325
320
321
329
330
324
325
326
327
324
319
350
386
310
313
316
320
319
316
317
321
319
317
318
320
320
317
319
323
323
319
317
321
323
320
318
323
325
322
321
325
327
324
322
325
326
325
321
324
326
327
323
322
326
327
322
316
328
381
340
310
321
321
318
320
323
325
322
322
323
323
321
320
326
327
323
320
324
328
325
324
326
327
325
321
322
326
325
322
324
327
326
320
322
327
327
322
320
326
325
321
314
340
397
313
310
316
320
317
316
321
323
322
320
321
323
322
318
321
323
321
317
320
325
324
321
322
326
324
323
321
324
323
322
321
323
325
322
319
320
324
323
320
321
325
323
319
316
325
378
342
307
315
318
315
318
321
321
319
319
320
320
318
318
323
326
322
320
323
325
320
318
322
323
323
318
323
323
322
317
320
325
323
319
319
323
324
320
320
323
321
317
317
313
336
390
309
311
314
314
312
316
320
319
315
320
320
316
315
318
321
318
315
320
320
322
318
320
323
323
317
320
324
323
319
320
324
324
320
320
326
325
320
321
325
326
320
319
357
375
308
312
318
322
320
318
320
322
322
317
320
322
322
321
322
325
323
319
321
325
325
321
320
323
323
321
321
322
326
321
320
320
322
324
321
320
325
321
320
318
321
360
360
302
313
315
315
315
320
320
316
317
319
322
319
319
324
323
320
316
320
321
318
316
320
320
318
315
319
321
318
315
316
320
315
313
317
322
320
317
319
321
323
313
332
401
319
307
312
317
318
315
314
318
320
316
314
318
320
320
318
323
324
322
318
320
324
322
320
321
323
323
320
321
325
325
322
323
327
327
324
323
326
331
331
324
328
329
327
318
328
383
352
311
321
326
324
322
322
327
327
323
325
327
327
325
326
332
330
326
327
329
330
326
325
329
327
324
321
325
327
322
321
324
327
323
320
322
324
322
319
321
325
320
316
311
334
391
306
305
313
315
311
312
315
315
312
312
315
316
312
312
316
315
310
308
311
312
311
307
309
313
312
307
308
312
311
306
309
314
313
307
308
314
315
311
310
313
313
310
302
324
387
306
296
305
308
305
304
306
309
308
303
306
311
307
304
308
310
309
306
309
312
311
308
308
312
314
309
309
313
315
311
311
316
315
313
309
313
313
312
311
315
317
315
313
316
318
310
330
390
310
308
309
313
314
313
308
308
314
312
309
308
312
314
310
311
313
314
310
310
315
317
314
312
315
318
313
309
312
314
313
311
313
316
315
311
311
313
313
313
315
315
316
312
311
311
313
346
359
301
309
305
306
308
312
309
307
308
311
310
306
311
314
313
309
309
313
313
309
311
314
315
310
311
315
315
312
313
316
316
314
313
316
316
310
310
318
320
314
315
318
319
313
312
354
357
302
306
308
313
313
310
312
315
313
316
317
322
322
319
320
321
321
317
316
319
321
318
315
318
323
320
320
321
324
321
319
322
324
322
318
320
326
324
317
320
322
323
314
318
362
366
302
310
315
318
315
316
319
321
317
317
320
320
317
318
320
322
319
317
321
323
322
318
318
321
322
316
317
320
320
316
317
322
320
318
318
322
322
319
319
324
325
320
318
322
323
314
323
386
334
305
309
314
319
316
313
317
320
318
314
315
318
318
316
316
321
321
319
317
321
322
321
318
321
324
321
319
322
322
320
318
321
323
321
318
319
322
323
322
322
323
324
319
320
315
334
391
313
311
316
315
315
321
321
318
316
320
321
317
315
318
323
321
316
320
322
320
317
318
321
320
315
316
321
321
318
319
323
324
319
317
323
325
322
322
325
324
320
314
326
373
349
305
315
320
319
316
318
322
320
316
317
321
320
317
319
322
321
318
316
319
320
317
318
321
321
317
315
321
322
318
318
322
323
319
315
319
322
322
315
319
321
319
314
313
342
385
304
310
315
316
314
315
318
317
315
315
317
318
316
314
318
320
319
316
321
322
320
319
321
324
321
318
321
324
323
318
321
323
323
320
319
321
322
320
320
321
323
319
319
320
316
342
380
308
314
312
312
315
320
315
314
316
318
316
313
317
322
317
315
316
320
320
316
316
320
318
316
316
321
321
317
316
321
323
319
318
320
322
322
321
324
325
321
318
323
317
336
389
313
312
317
315
317
322
320
318
319
323
321
317
318
323
325
320
319
322
322
318
318
322
324
322
319
323
324
321
318
321
323
322
316
321
324
328
324
324
328
328
323
317
334
393
327
308
318
321
317
318
322
322
319
317
320
322
319
316
320
322
320
317
318
322
320
316
318
321
318
314
317
320
319
315
317
322
321
317
317
319
320
316
319
321
321
318
316
320
313
320
374
337
308
312
310
312
318
316
312
315
318
315
311
314
316
317
315
315
320
319
314
314
317
318
317
316
320
321
317
315
320
320
318
314
319
320
318
316
320
319
318
315
320
323
319
318
319
322
312
319
375
343
306
311
311
317
319
314
313
317
319
316
314
319
321
320
318
320
321
319
316
319
323
322
318
318
322
320
317
317
320
320
317
319
322
322
316
315
321
324
320
316
320
321
318
310
325
380
332
303
312
316
314
311
316
319
317
314
317
318
320
317
319
322
319
314
315
319
320
317
315
320
320
317
315
319
320
317
314
318
319
318
317
318
320
318
314
320
324
321
317
320
322
313
327
394
320
309
310
313
317
319
315
313
319
319
316
314
315
317
316
315
317
320
317
314
318
320
318
314
318
320
321
317
318
322
320
318
319
322
322
317
319
321
322
317
317
322
322
320
318
320
319
318
352
370
309
314
312
316
317
315
314
316
319
318
316
317
320
322
318
319
322
320
318
318
322
323
317
316
320
321
319
320
321
322
321
319
322
324
321
316
318
322
322
320
320
323
323
316
310
328
386
319
304
313
315
313
312
317
317
313
312
317
317
314
314
319
319
315
312
315
316
316
313
315
317
316
313
316
320
320
316
316
320
320
316
314
318
321
319
318
321
321
319
318
314
339
388
304
308
313
312
309
314
317
316
311
314
317
315
313
315
320
318
315
315
320
318
315
316
318
317
313
316
320
321
316
315
320
320
317
315
319
322
317
316
320
325
321
318
320
323
320
309
335
393
309
305
309
314
314
311
311
314
315
311
312
316
316
314
315
318
318
315
314
317
318
317
314
317
319
317
314
318
320
319
314
316
320
318
315
320
323
320
319
319
322
316
320
370
345
309
313
313
314
317
313
311
316
318
315
313
315
319
318
316
318
320
320
316
318
321
320
317
318
322
321
318
318
322
321
319
319
322
323
320
315
320
323
318
310
329
392
320
307
315
318
316
315
316
320
318
316
316
320
320
319
320
321
321
316
316
321
322
318
317
319
321
316
316
320
321
319
316
320
324
323
320
321
324
320
315
316
346
379
302
309
315
315
312
314
317
316
314
313
317
317
315
315
320
320
317
314
318
318
316
314
317
318
317
314
318
320
317
314
314
316
318
316
318
318
319
316
318
315
318
363
350
307
315
311
311
316
317
313
311
315
316
315
312
314
318
316
314
315
318
316
313
316
319
317
315
315
319
319
316
318
320
319
314
317
324
327
323
324
326
328
318
332
397
326
315
316
320
321
322
320
321
321
321
317
319
322
320
318
318
321
320
316
317
321
321
315
316
320
320
319
316
320
322
321
316
322
326
321
317
320
322
319
313
316
351
369
302
311
315
314
312
314
318
316
313
315
318
317
315
316
321
320
315
315
318
318
316
313
315
318
314
310
313
315
314
313
316
315
315
314
317
317
318
315
316
316
313
342
375
304
312
311
311
315
316
316
314
318
319
316
313
317
321
319
316
319
320
319
316
320
322
321
318
319
321
320
316
316
320
319
316
316
317
317
315
320
322
318
317
314
318
315
316
352
364
303
310
310
313
316
315
314
315
320
320
314
317
320
320
318
318
320
320
316
315
317
319
315
314
317
318
316
315
317
316
314
313
314
318
315
314
315
317
316
312
314
308
325
378
314
305
311
309
311
315
313
311
313
316
317
313
313
318
319
316
312
315
316
315
312
313
318
314
312
316
318
315
313
314
316
316
311
314
318
321
317
314
319
316
313
309
321
367
344
300
310
314
310
309
313
314
311
310
313
317
314
311
315
317
314
311
314
316
314
311
313
320
320
313
317
321
321
316
315
320
320
316
316
319
319
320
318
322
321
318
316
317
314
319
362
346
304
312
312
314
315
315
309
311
315
315
312
314
318
317
315
314
318
316
311
309
312
313
311
309
313
314
312
311
314
316
314
310
314
315
313
309
310
315
317
312
312
314
315
309
303
325
390
305
299
306
308
306
305
310
311
309
307
311
313
311
310
314
318
315
311
313
316
315
311
313
316
314
312
313
314
313
310
310
315
316
313
314
317
315
312
314
319
318
317
316
317
319
312
334
386
306
307
308
313
316
316
313
315
320
319
314
313
316
317
315
315
316
316
313
312
315
317
313
313
317
317
315
314
316
318
316
313
315
316
315
314
319
321
319
317
318
320
312
319
368
339
304
306
309
314
314
312
311
314
317
312
314
317
319
317
316
318
320
316
313
316
317
316
312
315
317
314
312
313
316
315
314
313
313
316
314
315
318
319
314
314
315
310
332
383
304
306
309
309
312
315
314
309
312
315
314
310
311
316
317
312
313
315
315
311
311
315
317
313
313
316
316
314
313
316
317
314
314
316
316
314
316
319
316
314
313
317
312
318
365
342
300
307
307
309
313
314
310
310
314
314
310
309
313
315
313
311
312
313
309
310
313
314
312
311
314
315
314
310
313
315
313
311
314
316
312
311
314
319
315
311
312
315
314
306
332
382
303
304
307
311
314
312
311
313
315
313
312
315
317
315
313
316
316
315
314
314
317
315
312
313
317
317
314
314
317
317
313
313
314
315
315
316
315
315
312
310
312
308
325
379
306
302
307
308
309
312
312
310
312
315
315
310
314
316
317
313
312
315
317
312
312
314
313
311
310
312
315
311
311
315
317
314
311
313
315
313
311
314
314
313
310
311
316
310
327
387
308
306
307
310
314
313
311
311
313
313
311
309
315
316
314
312
314
315
314
310
314
318
316
311
313
315
313
310
312
313
312
310
313
315
315
311
312
315
316
312
310
315
317
312
311
312
315
311
312
313
315
313
312
311
311
339
372
297
307
306
305
309
313
311
308
310
312
311
308
309
313
316
311
311
315
316
313
311
315
315
312
311
315
316
312
309
312
316
314
312
315
317
316
312
317
317
318
314
316
318
317
313
314
315
316
313
316
315
318
314
313
312
314
350
350
298
307
308
308
310
313
312
309
313
314
313
310
311
315
316
310
312
316
315
313
314
317
317
312
313
317
317
314
313
316
317
313
311
315
317
315
310
313
315
314
313
314
316
316
312
310
310
337
367
296
304
308
306
307
311
313
309
309
311
313
310
311
314
317
313
312
314
317
316
312
313
316
313
309
312
315
315
311
312
315
316
312
311
313
314
309
310
313
317
312
311
315
315
313
304
329
392
307
301
308
312
312
310
312
315
313
309
312
314
313
311
314
317
315
310
312
314
313
310
311
312
313
309
311
313
315
313
312
314
315
312
312
314
313
312
308
316
316
313
310
313
317
307
325
387
306
301
301
308
311
312
308
309
312
316
312
312
315
317
314
313
314
314
311
309
314
315
312
309
313
315
314
313
314
316
316
312
312
315
313
310
313
318
318
314
314
315
315
302
322
382
315
299
304
312
314
312
311
313
315
313
312
315
317
316
314
314
318
314
311
314
317
317
312
313
314
315
312
312
316
316
314
312
314
314
313
312
312
314
314
312
313
316
313
310
307
316
361
340
298
308
308
305
308
311
310
306
308
312
316
310
312
317
318
313
311
313
314
309
310
312
314
313
310
313
316
314
312
313
318
316
314
313
317
315
312
312
316
313
312
311
315
314
310
311
313
316
315
312
316
317
315
304
323
386
322
300
308
312
311
309
312
316
314
310
312
315
310
307
311
315
314
311
310
314
313
309
309
313
314
310
310
313
315
311
311
312
314
310
308
310
311
311
307
309
313
310
309
311
313
313
308
311
313
313
311
315
317
314
311
312
315
305
325
383
306
302
302
303
306
309
306
305
307
310
308
307
311
313
313
310
310
312
310
310
310
313
312
309
310
313
315
312
312
315