696
692
694
691
686
683
686
683
680
680
683
682
679
680
682
679
677
679
678
674
670
672
672
668
666
667
663
657
655
658
657
653
652
652
649
646
647
646
641
635
633
628
619
612
610
604
596
590
589
584
578
574
573
568
565
565
564
557
551
561
587
616
637
642
626
593
563
553
546
542
541
542
539
537
540
544
541
538
539
539
533
529
530
528
524
522
524
523
518
516
517
513
507
506
506
502
497
497
499
496
493
494
493
489
486
488
488
487
488
490
489
488
491
496
496
495
496
498
496
496
500
505
506
507
513
516
516
517
524
526
525
526
529
529
528
529
532
530
527
527
528
525
523
525
526
524
523
528
528
527
528
532
533
532
533
537
535
532
532
534
531
528
529
529
525
522
525
525
522
519
521
519
515
511
512
508
503
502
503
500
499
502
506
504
503
507
508
503
499
501
499
493
490
491
487
484
483
485
479
471
466
465
460
457
458
459
457
454
454
452
447
445
447
446
442
439
441
439
435
435
438
436
433
432
428
418
416
433
463
494
511
514
498
466
444
441
440
439
440
444
445
445
448
453
452
452
455
459
458
458
462
463
462
463
468
468
465
465
469
468
466
466
470
469
468
470
474
474
473
477
480
479
478
482
484
484
486
492
494
493
494
499
498
496
496
498
494
490
491
493
492
491
494
497
496
496
502
503
501
502
508
509
508
508
512
510
508
511
515
513
511
512
513
510
509
513
514
511
510
513
513
510
510
515
514
513
514
515
510
506
507
510
505
503
506
507
504
502
504
502
498
496
498
496
492
490
493
489
486
486
486
481
477
477
477
473
469
470
469
466
464
467
467
465
464
467
465
464
467
472
470
467
468
472
472
473
478
482
482
482
487
487
485
483
486
485
482
482
485
482
477
477
479
476
472
470
461
447
441
456
486
516
535
536
514
476
451
446
443
441
442
446
445
444
446
448
446
445
449
451
449
449
454
456
455
456
461
461
459
461
466
464
461
463
465
463
461
464
467
465
464
469
471
469
468
472
473
473
475
480
481
481
484
487
485
481
482
482
477
474
473
472
467
464
466
466
463
460
462
458
455
456
460
460
459
462
466
466
467
471
475
474
474
480
482
480
482
489
493
493
495
501
501
500
501
505
504
503
506
508
507
506
510
512
509
508
512
513
511
511
515
513
510
510
513
513
511
514
517
516
515
516
516
514
512
515
515
512
510
514
514
511
512
515
514
510
508
509
507
504
505
507
504
501
502
502
499
497
502
505
504
504
510
512
513
515
519
518
515
516
518
514
509
510
512
512
510
512
512
507
504
507
508
508
509
514
514
512
512
516
515
514
517
521
520
517
517
512
502
497
513
543
576
599
606
590
557
533
528
525
523
524
528
527
527
531
534
533
533
539
541
541
541
547
547
546
547
553
553
552
552
555
553
552
555
558
556
554
556
556
552
549
552
552
550
550
555
558
559
563
570
574
576
581
587
587
585
586
586
581
577
579
577
572
569
572
572
569
571
577
577
576
579
582
579
577
579
581
580
579
582
585
583
582
586
588
585
584
587
587
585
587
591
590
587
588
589
588
586
589
592
589
587
590
591
589
587
589
586
582
581
584
582
579
580
583
581
576
576
578
577
576
578
579
576
575
578
579
577
576
580
579
578
578
581
579
578
580
583
581
580
582
585
583
582
584
582
577
572
573
571
567
566
568
565
562
561
562
559
554
554
557
555
554
556
556
552
549
552
550
545
544
546
544
539
536
539
536
533
534
537
533
527
521
515
513
528
563
592
603
594
576
545
524
516
517
518
517
519
525
525
525
529
534
534
534
537
539
538
538
541
542
539
539
544
543
540
540
543
539
535
535
537
534
532
535
538
537
536
541
545
545
546
551
552
550
551
554
553
550
552
556
555
553
556
559
556
553
555
556
554
552
556
557
555
555
559
558
555
555
558
555
553
554
557
554
551
553
555
553
551
552
553
551
550
557
559
559
559
564
565
564
566
570
570
569
571
574
572
569
571
572
568
567
571
571
568
566
568
567
564
563
565
562
560
561
563
560
557
556
557
553
551
553
554
551
549
552
550
546
544
546
544
541
540
542
537
534
536
537
534
533
535
537
535
535
540
542
539
538
543
545
545
546
551
550
547
547
549
544
541
542
545
542
541
543
544
542
542
545
545
543
541
539
528
516
514
528
552
580
603
609
593
559
536
528
524
522
524
523
520
520
525
527
526
526
529
526
524
527
530
527
523
524
527
526
525
528
530
529
529
533
533
530
530
533
531
528
529
531
529
526
525
526
524
522
525
528
528
528
534
537
537
540
548
550
549
549
552
551
550
552
555
551
547
546
546
542
543
549
550
546
545
550
551
548
546
552
553
553
556
561
560
557
559
560
555
551
551
553
551
549
552
552
550
550
554
552
547
547
551
550
548
549
552
551
548
549
551
546
542
546
551
551
549
551
551
549
549
550
546
541
540
541
536
529
526
524
518
512
510
510
508
503
499
491
480
471
466
457
445
435
427
412
395
382
373
360
344
330
319
307
296
290
283
273
265
264
265
264
265
269
270
270
272
277
280
281
284
286
284
280
274
266
257
249
245
241
234
228
230
231
226
219
215
205
195
192
211
240
273
295
296
272
235
216
211
208
208
213
216
217
218
225
226
226
230
238
240
240
242
246
245
246
251
257
257
258
265
273
278
283
290
296
301
308
317
321
323
327
334
337
339
345
355
362
368
378
386
388
390
397
401
402
405
412
414
413
418
426
429
432
438
446
448
450
458
466
469
472
479
485
488
494
505
512
517
525
536
540
542
550
561
566
571
580
590
594
599
609
617
621
627
637
641
644
650
661
666
670
675
685
689
692
698
706
711
716
726
735
738
742
750
755
757
760
768
771
772
775
781
781
779
779
782
781
780
782
787
789
789
793
794
792
793
798
799
797
797
804
807
808
808
810
812
815
821
825
821
818
822
828
827
825
827
826
824
825
830
830
829
832
839
843
843
844
847
844
843
845
846
844
843
846
847
846
846
849
849
845
846
850
848
844
842
843
838
834
834
836
832
829
828
823
811
802
808
831
860
883
890
871
836
802
791
784
777
774
772
766
758
754
752
745
739
736
734
729
725
728
726
721
718
718
714
709
706
706
699
692
689
686
677
669
665
662
656
651
651
646
638
633
634
630
625
622
622
616
612
611
614
610
605
604
601
594
587
585
583
577
571
573
573
571
570
573
572
571
571
575
572
570
572
577
577
578
583
587
586
583
585
586
584
582
585
583
579
578
580
577
573
573
576
573
568
568
569
566
562
564
567
564
563
565
566
563
563
567
567
565
566
568
566
564
565
567
563
561
563
565
562
558
560
559
555
553
556
555
551
550
552
549
544
544
546
542
537
537
538
534
531
532
531
525
518
515
510
503
498
497
493
488
486
488
485
480
478
479
476
473
471
466
455
449
460
486
519
541
545
527
492
465
457
452
449
450
453
453
453
456
460
460
460
465
469
466
465
469
471
469
469
473
473
470
469
471
469
467
467
468
465
462
464
468
467
465
468
471
470
470
474
475
474
474
477
476
472
471
473
469
464
463
465
463
460
460
461
458
456
461
462
461
461
467
470
470
472
478
480
480
486
494
497
499
506
514
515
516
522
524
523
522
525
526
524
524
531
533
531
531
535
534
531
533
537
538
538
542
545
544
543
548
550
548
551
559
564
566
569
577
581
584
590
597
600
602
608
615
616
619
628
634
635
638
645
647
647
647
653
654
653
656
664
666
667
672
679
680
681
683
686
683
683
685
686
683
684
692
694
691
691
695
694
691
692
695
693
691
692
693
689
686
688
688
685
684
684
679
667
657
655
665
693
729
753
749
727
695
671
660
654
655
653
647
643
645
646
643
642
646
644
641
641
644
644
641
640
642
638
635
636
639
637
637
641
642
641
640
646
651
657
669
688
707
728
751
776
795
814
837
859
875
891
905
925
932
935
937
937
939
938
937
938
938
937
937
937
937
936
937
938
937
937
937
937
937
936
938
937
936
937
938
937
937
937
938
929
921
923
911
905
903
898
896
888
884
879
868
858
855
849
838
831
828
821
811
803
799
792
784
778
775
767
758
753
750
741
733
728
723
714
706
703
697
687
680
678
672
662
655
650
641
632
628
625
616
607
603
599
591
586
586
585
581
577
577
575
571
568
568
562
558
556
555
549
543
541
542
537
534
535
535
531
527
528
526
521
518
516
508
495
483
471
454
439
432
429
425
421
423
426
422
412
403
395
386
380
378
371
367
379
413
448
471
476
460
423
388
375
370
363
357
356
356
352
350
355
357
359
363
373
379
385
398
419
436
454
475
499
523
545
567
587
602
617
635
650
660
670
683
692
699
708
720
725
727
730
736
735
733
734
734
729
728
736
741
742
742
747
751
752
752
754
750
744
741
741
738
742
750
753
746
745
748
748
737
727
727
725
718
711
706
699
691
684
680
672
664
657
652
643
636
633
631
624
618
616
615
609
606
608
606
600
595
595
590
582
577
576
570
563
561
560
555
549
547
545
537
528
526
524
520
518
520
521
522
528
540
546
549
558
571
580
588
599
611
617
622
631
639
643
650
660
666
668
673
682
688
694
703
714
719
723
730
739
742
743
748
754
755
756
763
769
772
775
782
787
789
795
806
813
815
817
818
813
807
806
805
798
793
791
791
788
787
792
793
792
795
800
798
788
777
771
773
793
824
846
842
819
784
750
729
717
712
703
689
682
681
677
670
665
664
659
653
649
646
638
630
627
624
616
607
603
599
591
585
586
584
580
577
578
573
566
563
564
560
555
551
551
547
543
542
541
537
533
535
535
531
527
528
524
517
512
513
509
504
501
502
498
493
491
492
487
483
484
484
478
472
470
466
458
451
448
442
434
430
431
427
423
424
427
424
422
426
430
427
425
425
423
416
412
414
414
411
410
413
412
411
413
417
416
414
416
418
416
416
422
427
424
423
430
435
436
437
442
442
439
439
444
445
444
446
450
450
450
452
455
454
454
458
462
463
464
468
468
466
466
471
473
471
469
469
465
460
459
460
457
454
456
460
459
458
459
457
450
447
448
443
433
423
416
412
423
452
481
489
477
452
420
398
387
386
386
382
379
385
388
388
389
394
394
393
395
399
399
396
397
400
400
400
403
405
403
399
400
400
397
395
397
395
389
387
389
387
385
388
392
392
390
392
394
389
386
388
388
385
384
388
386
383
381
384
383
379
378
379
374
371
372
376
372
368
368
369
365
362
366
370
371
372
378
380
377
374
376
373
368
367
368
365
360
360
361
358
354
358
361
358
355
357
357
354
351
353
352
348
346
347
345
342
342
344
342
340
340
341
339
338
341
342
340
338
341
340
336
334
336
333
328
325
326
323
321
325
331
332
334
339
344
345
344
349
353
353
355
362
365
365
368
375
377
378
382
389
392
395
402
409
413
416
423
429
431
435
443
449
453
459
470
477
481
489
498
501
502
505
508
506
505
509
514
515
515
520
523
523
523
528
528
525
526
528
523
513
505
503
512
539
580
612
622
611
588
563
549
545
549
548
544
543
547
548
548
550
555
555
556
559
562
560
558
559
561
558
556
558
558
554
553
556
554
551
550
555
554
552
553
555
553
551
554
559
561
563
567
571
572
571
574
575
573
573
577
574
571
570
570
565
560
558
557
553
549
549
549
545
541
542
540
536
532
532
530
528
529
532
531
532
535
540
538
535
536
539
538
537
540
541
538
538
542
542
538
536
539
537
533
530
531
526
522
521
522
518
515
517
517
513
508
510
510
507
503
501
496
490
488
488
483
478
476
476
472
469
470
470
466
461
460
458
452
448
447
443
436
431
429
425
419
415
416
411
407
405
405
399
393
391
389
382
376
376
373
367
362
363
361
358
355
356
350
342
339
337
330
323
321
320
315
311
310
307
300
294
293
289
282
278
277
271
262
257
256
249
243
242
242
238
233
229
222
209
202
215
247
286
314
327
314
281
251
244
240
237
236
237
234
233
235
240
241
243
249
254
255
257
264
268
269
272
277
279
280
284
289
289
289
293
296
294
294
298
302
301
300
305
309
309
311
319
323
326
330
337
339
340
343
350
351
352
356
359
355
353
356
359
359
359
363
365
362
363
368
369
369
370
376
378
380
386
394
396
397
402
406
406
406
411
415
415
416
421
423
422
425
432
434
436
442
448
451
452
456
460
459
460
465
470
471
473
478
480
479
481
488
490
489
491
497
498
500
504
508
509
510
514
520
521
523
529
532
531
531
538
539
538
539
545
545
543
544
547
546
545
547
551
554
563
576
589
598
608
622
631
636
643
653
657
660
664
672
675
676
678
683
683
684
689
693
691
689
693
693
688
684
687
687
685
687
691
688
679
675
681
699
729
759
774
764
740
714
701
696
694
699
702
700
699
702
702
701
703
709
710
709
709
711
710
710
715
720
718
718
721
723
721
720
722
719
715
712
714
713
709
707
709
706
702
702
705
702
700
702
704
702
698
700
701
697
691
691
687
681
678
678
672
664
661
660
655
650
651
652
649
645
646
645
640
637
639
639
636
636
642
644
644
647
654
657
660
663
667
665
661
661
659
653
648
647
646
640
635
637
636
633
633
636
635
633
634
636
632
629
629
629
625
622
625
628
626
623
624
623
619
616
618
616
613
612
614
613
610
610
609
603
596
593
588
579
572
570
568
565
564
567
567
564
563
565
562
558
555
555
550
547
547
546
541
539
542
544
543
544
549
550
546
545
548
548
548
550
553
552
549
549
550
546
543
545
546
544
542
544
545
543
543
549
550
549
548
547
538
528
527
547
576
607
623
623
598
561
540
535
531
528
528
528
527
530
538
539
540
543
548
548
548
553
560
561
560
564
569
568
567
569
570
567
565
569
570
568
566
568
565
559
557
558
555
551
551
554
552
550
551
552
548
545
549
550
546
543
543
539
533
529
530
526
522
521
522
519
517
520
523
522
522
526
528
527
527
533
535
534
536
542
544
545
550
558
561
563
570
579
582
585
592
598
600
603
611
617
620
624
630
632
632
635
642
643
642
644
647
646
646
649
654
653
653
659
664
665
667
673
677
677
680
688
692
695
699
706
708
711
715
720
719
717
720
724
722
720
723
724
721
719
722
721
718
715
716
714
710
709
711
707
703
703
703
699
695
695
694
689
685
684
679
671
666
664
658
649
645
644
637
630
629
629
624
620
621
622
621
620
622
621
618
615
616
611
606
604
605
603
598
595
596
592
589
589
590
586
585
587
585
572
559
554
566
594
630
655
655
632
597
573
560
551
549
547
540
533
533
533
529
526
527
525
520
517
519
517
510
506
508
506
503
502
504
500
496
496
495
491
487
488
486
480
477
478
476
472
471
474
473
470
471
475
474
471
472
475
473
472
472
472
468
461
459
454
446
440
439
436
431
428
429
425
421
421
423
420
418
419
421
420
418
421
423
422
421
424
424
420
420
423
422
420
421
424
422
420
422
426
426
425
427
430
429
426
429
428
425
424
429
430
428
427
431
431
429
431
435
434
433
436
439
437
435
437
439
438
438
442
444
442
441
443
442
439
440
443
442
439
440
442
441
438
439
441
438
437
441
442
438
437
441
442
440
440
445
445
445
447
453
452
451
452
456
454
453
456
459
457
457
462
464
465
469
477
479
478
481
486
487
487
489
492
491
488
489
493
492
493
500
504
504
504
508
507
504
502
506
505
504
505
506
500
493
498
520
549
576
592
588
564
533
518
513
508
508
512
510
508
508
511
511
510
511
514
512
509
509
511
508
506
508
510
508
506
508
506
502
501
505
504
503
505
510
510
509
512
516
516
516
521
523
522
521
526
528
526
525
528
527
524
522
523
520
514
513
513
509
504
503
503
500
498
500
500
496
495
496
494
490
487
489
488
484
484
487
485
482
483
486
484
482
485
488
487
485
489
493
493
493
497
497
496
498
503
502
500
502
506
506
504
507
508
506
504
505
506
503
503
507
508
506
504
507
506
503
504
508
507
506
509
513
512
512
517
521
521
522
527
530
530
530
533
532
530
531
535
536
536
538
544
544
544
547
550
550
549
552
552
547
545
550
552
552
553
557
557
555
556
561
562
561
564
568
567
565
566
568
565
563
564
562
558
552
548
542
544
566
602
630
638
628
601
567
549
545
545
541
537
537
535
531
530
533
531
527
523
522
517
513
516
524
525
526
528
534
535
536
539
542
542
542
548
549
548
545
547
546
542
542
548
549
549
551
557
558
558
562
569
569
568
571
573
570
567
567
565
561
558
560
556
551
550
552
548
543
541
542
540
537
536
536
532
528
529
530
527
526
530
531
530
531
534
534
531
530
533
531
529
530
532
529
527
530
530
527
526
530
532
531
532
539
541
540
541
546
546
546
549
554
554
553
555
556
554
552
555
554
550
546
548
548
545
543
545
542
537
534
535
532
528
529
531
526
523
524
526
523
521
524
525
522
521
524
524
521
521
525
523
520
520
523
521
517
516
517
514
510
512
511
507
505
508
508
507
507
512
510
507
506
510
513
514
517
522
520
519
522
526
527
528
531
532
531
529
532
532
530
530
534
535
533
531
530
523
520
537
569
604
626
632
615
578
548
540
535
529
523
524
520
516
516
519
517
515
517
519
518
516
518
521
519
518
522
522
520
520
524
524
521
521
525
524
520
520
522
519
516
517
519
517
516
518
520
519
518
523
525
524
524
528
528
524
522
523
520
512
509
508
504
499
498
497
491
486
486
485
483
482
485
484
481
481
485
484
480
480
483
483
483
487
493
493
491
494
496
494
492
494
494
491
491
495
493
489
488
490
489
488
489
493
492
491
494
498
497
497
501
505
504
506
511
513
512
510
512
510
506
506
508
506
504
507
511
510
509
513
516
517
518
523
526
525
525
529
528
526
527
531
531
530
531
535
533
530
533
536
533
530
531
531
527
526
530
530
527
526
530
530
529
529
532
529
525
527
532
531
531
533
533
529
525
526
524
520
516
517
517
513
512
516
514
511
510
513
512
506
501
494
489
500
531
564
577
572
555
523
498
491
491
489
487
485
486
482
478
476
477
476
475
479
482
480
478
483
486
486
488
493
495
494
494
497
496
494
493
495
495
494
497
502
503
502
506
510
509
508
512
513
510
509
513
513
512
512
514
510
505
503
504
500
498
500
501
496
491
493
492
488
486
492
493
490
490
494
495
494
495
498
495
492
493
495
492
491
494
497
495
494
498
500
499
497
499
497
495
497
503
504
503
506
509
507
507
510
513
511
507
508
507
504
502
507
509
507
507
511
510
508
508
510
509
508
512
516
516
516
519
522
520
520
524
526
524
523
525
524
520
519
521
519
516
517
519
518
517
518
520
518
516
518
518
514
513
516
515
511
508
511
511
509
511
517
518
517
521
523
519
516
519
523
522
521
526
529
527
527
532
531
527
526
528
522
512
505
505
516
544
581
606
606
589
559
536
525
522
524
523
520
518
520
518
516
515
517
515
513
516
519
518
516
519
523
524
525
530
532
531
530
532
531
528
528
531
528
524
524
527
525
522
522
522
520
517
519
520
519
521
526
528
527
527
533
532
529
529
531
529
525
525
525
520
515
515
514
510
506
507
506
503
503
507
506
505
508
513
512
512
515
521
520
521
525
529
528
527
530
535
537
539
544
546
545
545
549
548
546
548
553
554
554
557
561
560
559
561
565
564
563
567
570
568
568
571
571
567
566
569
568
566
567
571
570
569
572
577
576
577
580
581
579
577
580
580
577
574
576
574
570
568
569
566
563
561
563
559
556
558
560
558
557
560
561
559
558
561
561
559
558
562
561
559
559
561
558
555
555
554
549
546
548
550
547
544
545
544
541
539
543
541
537
536
539
537
535
536
536
533
529
530
529
525
520
514
505
496
505
537
574
598
606
597
567
535
523
522
517
509
507
508
506
505
508
511
509
506
506
506
504
505
510
511
509
510
516
517
517
518
522
523
524
529
534
533
533
537
539
538
539
544
547
545
547
552
551
549
550
553
553
551
554
558
556
554
554
552
547
542
542
540
533
529
528
524
519
518
521
519
516
516
517
512
508
510
514
514
513
514
514
511
508
510
508
505
504
507
506
502
502
505
505
503
503
505
501
498
499
501
498
497
500
502
501
501
505
504
502
505
511
513
514
517
524
526
528
532
535
534
531
533
535
534
534
536
535
532
530
532
530
526
526
529
527
526
528
530
526
522
523
523
520
518
519
519
514
512
513
512
509
508
512
511
509
510
512
509
505
506
509
508
506
508
509
506
505
511
512
509
508
510
509
506
507
511
510
508
509
512
511
509
511
513
510
509
512
509
500
490
485
487
503
536
566
572
559
534
508
494
488
489
493
490
487
490
492
491
492
497
498
496
497
501
500
498
497
501
499
497
497
500
498
497
498
499
495
493
495
496
493
493
497
498
497
498
503
502
501
503
506
505
502
505
507
503
501
503
503
498
494
494
493
489
487
490
488
484
483
485
483
479
478
480
478
474
476
478
478
478
481
482
478
477
481
483
482
483
489
490
491
494
499
498
498
502
507
506
505
509
511
510
510
515
519
519
520
524
524
521
522
526
527
525
527
530
530
529
530
531
527
522
521
520
515
512
515
514
512
513
518
519
518
519
522
521
519
520
521
518
516
519
520
519
518
520
521
520
520
523
520
516
520
526
526
523
523
522
517
513
514
516
514
513
516
518
512
508
515
519
520
520
523
519
515
515
518
517
516
518
521
518
516
520
522
520
518
521
520
514
506
504
508
528
563
598
609
598
572
540
522
516
517
519
514
510
511
510
509
511
516
517
514
514
518
517
514
515
518
517
514
516
520
517
514
516
516
512
509
509
510
508
508
511
512
510
511
513
511
508
508
510
507
505
508
510
509
507
510
510
505
503
505
504
500
498
498
494
491
489
490
487
484
485
487
484
480
480
479
475
470
472
473
471
470
474
474
470
467
470
466
462
461
461
457
452
452
452
446
441
439
437
432
428
430
429
425
425
428
426
422
419
419
416
412
411
411
408
404
404
405
401
398
399
398
395
394
396
395
392
392
396
394
391
390
392
391
392
395
400
400
402
407
410
409
408
411
411
409
410
414
415
413
412
415
414
413
415
419
418
418
420
422
423
422
426
428
426
423
425
426
424
423
428
427
425
427
432
432
431
432
435
434
434
438
440
438
438
442
445
443
442
444
445
443
440
437
433
443
474
514
540
547
537
511
481
468
468
468
464
460
465
468
469
473
480
482
482
486
492
493
493
495
498
498
498
503
506
504
504
508
509
508
510
515
514
512
513
519
519
518
522
529
531
532
535
538
538
538
543
546
546
544
547
547
545
544
545
543
539
540
543
543
543
547
552
551
550
552
556
555
554
559
561
560
561
565
565
563
565
570
571
575
584
595
601
607
615
624
628
631
639
644
648
653
661
665
666
670
677
680
680
682
687
689
688
690
694
694
692
695
696
693
691
692
692
689
689
693
693
689
688
690
687
684
683
685
683
681
682
683
681
679
680
680
677
676
679
681
679
678
681
681
679
680
682
680
678
679
681
678
675
676
676
672
670
672
672
669
666
669
669
666
665
669
669
667
665
666
662
657
656
658
654
650
649
646
639
633
631
626
620
617
617
612
606
604
605
601
596
594
594
588
580
573
569
571
588
620
645
649
637
613
582
564
558
558
556
551
549
550
546
541
539
536
529
524
522
522
519
516
518
517
514
512
514
514
511
510
513
512
508
508
511
509
507
507
507
503
499
501
503
500
498
501
500
497
496
498
497
495
495
496
491
486
486
486
481
477
478
479
474
471
473
472
468
465
467
465
460
457
458
457
455
455
457
454
453
454
454
451
450
452
454
452
453
456
455
452
451
454
455
453
454
459
458
457
458
460
458
457
460
463
464
465
470
471
471
471
477
479
478
479
484
484
483
486
492
491
489
491
494
492
491
494
496
495
495
502
505
505
507
511
510
507
508
511
510
509
510
514
513
511
514
515
513
511
514
513
510
511
518
522
523
526
531
530
528
531
534
534
535
538
542
541
540
542
544
544
544
547
548
544
542
539
530
526
540
573
606
625
627
612
578
552
544
544
542
542
544
544
542
542
546
547
548
550
555
555
553
555
559
560
559
562
565
565
564
568
571
569
569
571
570
567
565
567
565
562
560
560
557
555
554
556
553
550
552
555
555
555
558
560
557
555
557
554
549
545
544
540
533
530
530
526
522
522
524
521
519
522
522
516
512
512
511
508
508
511
510
508
509
512
510
508
510
514
511
509
512
513
508
504
505
504
500
497
500
500
497
496
499
495
490
489
490
487
482
482
484
483
481
482
483
480
479
482
482
480
480
482
479
475
474
476
473
471
471
472
468
466
469
471
468
465
468
469
467
465
469
470
468
467
471
471
470
471
473
471
469
471
474
474
476
479
481
479
478
482
483
482
482
488
488
486
485
488
485
481
481
483
479
476
476
477
475
475
477
476
472
471
477
479
479
478
481
480
478
478
481
479
477
477
476
472
470
471
472
468
465
468
469
467
464
461
454
452
472
510
545
565
568
552
515
489
481
481
478
475
478
480
480
481
485
487
485
486
490
491
490
493
498
498
498
502
508
509
510
515
519
521
522
528
530
529
529
533
533
529
530
535
536
535
538
543
545
547
551
555
555
555
559
561
558
555
556
554
550
548
550
546
542
540
541
538
535
534
534
529
524
523
522
517
513
514
513
509
509
512
512
508
507
509
506
501
501
503
502
499
499
501
499
498
501
501
499
499
503
505
504
504
509
508
506
507
509
506
503
505
507
504
501
502
505
503
501
504
506
505
505
509
510
509
510
515
515
514
516
520
520
520
524
527
527
526
529
530
528
529
533
534
532
530
533
533
532
531
535
534
532
534
537
537
534
536
536
533
530
532
533
531
530
532
532
530
530
533
531
527
527
530
530
529
531
534
532
532
534
534
530
529
534
536
533
533
536
535
532
530
533
531
529
530
532
531
530
534
537
536
535
538
540
535
529
524
518
518
536
572
601
612
605
585
552
534
531
534
532
528
529
530
529
531
534
534
533
533
536
535
532
532
537
538
539
541
546
545
545
548
549
547
547
551
552
550
550
554
555
553
554
558
557
554
555
559
560
560
561
565
563
563
567
570
566
562
563
561
556
554
555
553
549
548
552
551
549
551
554
553
552
553
553
550
548
549
550
547
544
546
545
542
542
547
546
544
544
546
543
540
540
542
540
538
538
537
533
532
534
533
530
529
531
529
525
525
527
525
521
520
521
518
515
515
516
512
510
514
515
512
509
510
509
505
504
506
506
503
503
507
505
503
504
507
505
504
504
507
505
505
507
508
505
504
507
506
503
504
508
507
503
504
507
504
500
500
502
500
497
499
500
498
496
500
500
497
499
505
505
502
502
505
503
500
502
505
504
503
506
507
503
502
504
504
502
501
505
504
497
490
486
490
514
552
586
595
583
559
529
514
509
510
510
505
503
506
507
505
504
506
505
503
506
510
510
508
510
514
513
512
514
516
516
515
519
522
523
525
529
530
528
530
534
534
532
531
532
530
528
529
534
535
535
540
544
544
542
544
543
538
534
535
531
525
523
524
522
519
518
519
515
512
513
514
511
510
512
512
509
507
509
509
506
505
508
507
506
507
512
511
511
513
516
514
512
513
514
511
510
513
513
511
510
513
511
508
507
512
511
510
513
516
514
513
516
520
518
517
519
519
516
514
517
516
514
513
516
514
511
512
516
514
510
509
512
511
511
514
515
512
510
512
511
507
505
508
507
503
502
503
501
499
499
501
499
497
499
502
500
499
500
501
500
501
505
504
500
500
503
503
503
505
508
506
503
503
505
501
496
495
495
492
492
496
496
494
494
497
495
492
492
495
491
487
487
490
487
483
481
482
479
478
478
474
462
452
453
468
498
536
565
568
547
512
487
474
468
466
465
461
457
458
458
451
449
456
461
460
460
463
465
464
465
470
470
469
471
476
477
477
481
487
487
487
492
496
496
496
501
503
503
509
517
519
518
520
526
527
526
528
533
533
532
533
532
529
527
532
532
527
524
526
525
524
523
526
525
521
520
521
517
512
511
512
509
505
505
508
511
511
512
512
511
509
508
506
502
501
501
494
491
497
505
505
502
502
503
499
496
499
500
498
497
498
493
491
495
501
499
494
494
497
497
494
495
498
497
496
499
501
496
495
502
507
507
505
507
508
506
507
510
509
507
509
513
511
509
511
515
513
511
514
516
516
519
523
520
514
514
519
521
519
517
518
515
510
509
510
507
504
506
506
503
502
506
507
506
507
511
511
508
509
513
514
512
513
517
516
513
514
515
512
511
515
516
513
509
511
510
508
507
509
508
503
498
493
482
477
494
527
556
570
570
552
516
493
489
487
484
483
486
488
487
489
494
494
492
493
495
492
489
490
493
490
489
492
492
490
489
495
499
499
499
500
498
494
493
495
494
492
493
496
495
495
498
501
500
499
501
502
500
498
500
497
493
491
493
488
484
482
484
481
479
481
485
484
483
487
489
487
486
488
487
483
481
484
483
482
484
488
487
483
482
482
478
478
479
479
475
471
474
475
473
474
477
475
471
470
473
471
467
467
468
466
464
464
465
462
460
461
461
459
457
458
455
450
448
450
449
446
446
449
446
444
445
449
449
447
448
450
448
445
448
450
449
448
451
451
449
452
458
459
459
462
467
468
467
471
475
474
474
477
479
477
476
478
478
476
477
479
477
473
474
478
479
478
481
483
481
480
482
484
481
478
481
483
482
483
489
492
490
492
501
504
504
503
498
488
486
505
540
572
589
590
571
535
514
512
510
507
505
508
509
510
514
521
519
516
519
524
525
526
528
531
529
528
532
534
533
534
539
540
538
539
543
542
542
544
547
544
541
544
548
548
548
551
554
554
554
560
560
558
556
560
560
555
554
557
554
551
552
554
553
552
556
559
556
554
556
556
553
552
554
553
548
546
549
548
546
546
549
548
548
552
554
551
551
554
555
552
550
552
553
551
551
553
551
548
549
553
551
548
549
552
552
552
553
554
552
550
553
555
552
552
553
550
544
542
545
545
542
541
544
542
540
541
543
539
536
537
536
533
530
532
532
528
527
531
530
525
524
527
524
518
517
519
517
514
515
515
509
506
507
506
502
500
500
497
492
491
492
488
486
486
487
483
481
482
483
479
476
477
479
478
474
474
474
474
475
477
475
472
474
480
483
486
492
498
499
501
507
513
515
514
511
507
505
520
555
594
619
626
614
580
551
542
542
538
534
533
535
533
532
535
539
538
537
542
544
544
545
548
549
547
548
552
552
550
552
555
554
553
554
558
557
557
559
559
555
554
556
557
555
555
558
557
555
556
560
561
562
565
570
570
571
573
573
570
566
565
562
557
554
554
552
548
547
550
547
544
543
542
537
535
536
537
534
531
533
534
531
530
534
536
534
535
541
542
540
542
544
542
540
542
543
540
537
537
538
535
533
534
533
530
530
532
529
525
523
524
521
518
519
522
519
518
519
520
518
516
520
521
519
517
517
516
513
513
517
515
511
509
512
511
509
510
514
512
509
511
512
508
507
510
510
508
509
513
512
509
510
515
514
509
506
510
511
511
513
514
509
507
507
506
503
503
507
509
509
511
516
515
514
519
526
526
523
522
520
512
504
508
529
559
589
606
601
574
540
526
523
522
524
526
523
522
525
530
530
530
535
541
541
541
544
547
545
544
547
548
547
548
552
552
550
550
553
551
549
551
554
552
550
553
556
554
552
554
555
554
554
557
558
555
556
559
557
553
553
554
550
545
545
545
540
537
539
540
536
533
536
535
531
527
528
525
522
521
523
520
516
516
520
517
514
516
517
514
512
513
511
507
506
509
507
503
501
505
504
502
500
500
498
497
499
501
498
497
501
503
501
500
503
504
503
503
507
507
504
505
508
507
506
507
511
510
508
510
513
509
507
509
510
507
505
508
509
508
508
510
509
506
507
509
505
503
504
506
502
499
501
502
499
498
501
502
498
496
499
499
497
497
498
495
493
495
499
498
496
497
499
495
494
497
499
497
496
500
501
501
502
507
508
507
508
508
501
493
490
503
531
566
594
603
588
556
532
523
518
517
520
519
518
519
523
523
522
523
521
508
500
502
507
507
508
512
516
515
515
519
520
521
522
525
523
519
520
525
527
527
530
533
533
533
536
538
536
537
543
546
546
546
551
551
550
550
552
549
545
545
546
542
539
539
540
538
537
542
545
543
542
546
546
544
543
545
543
540
541
545
543
540
542
544
541
539
542
543
541
540
543
543
542
543
547
545
541
541
543
541
539
538
541
539
537
538
538
534
532
533
533
530
530
532
532
527
525
525
521
517
516
519
516
516
519
524
523
522
524
525
521
518
520
519
517
517
521
522
524
528
535
537
537
541
546
548
550
554
561
563
563
567
570
569
569
573
573
570
569
570
569
568
570
575
574
571
573
576
574
574
577
579
577
576
577
576
572
570
571
569
566
565
567
566
560
559
560
555
551
548
542
530
522
534
563
596
621
630
613
575
541
530
522
515
510
512
507
502
501
504
502
500
503
505
503
502
506
508
508
508
510
511
510
513
517
514
511
512
515
513
511
513
516
514
513
515
515
509
507
513
515
515
514
514
511
511
515
522
521
516
515
515
511
508
509
508
504
502
505
505
503
504
507
506
503
504
507
505
502
502
507
505
503
505
509
509
509
514
517
516
517
519
515
512
516
524
526
524
524
527
525
522
525
528
527
527
530
533
532
531
536
536
532
530
534
538
539
539
542
540
538
540
545
545
545
549
552
548
547
551
553
553
554
556
557
557
561
567
568
569
572
576
571
571
578
585
581
578
582
585
581
578
582
584
580
577
580
580
576
574
577
574
573
577
579
573
575
584
589
586
582
582
580
573
568
568
564
556
553
555
554
551
548
545
536
529
529
539
558
587
612
618
600
568
547
538
532
529
534
532
528
528
532
533
533
535
537
535
534
535
536
533
532
535
536
534
536
541
541
536
535
539
540
537
535
541
542
539
538
538
538
539
540
538
536
538
546
547
539
539
548
550
545
540
540
537
533
530
528
524
519
518
519
516
514
515
515
513
513
517
516
512
512
515
512
507
506
509
506
504
506
510
509
507
508
508
505
503
502
501
500
501
503
502
498
498
502
499
495
493
495
492
489
490
493
490
489
490
489
484
481
483
482
478
476
480
481
478
476
479
477
475
475
479
476
474
474
475
471
469
474
476
474
472
474
472
470
470
473
471
470
471
475
473
471
472
474
471
468
469
470
469
469
472
471
468
467
472
471
466
461
457
449
447
467
502
532
548
547
526
488
468
467
466
463
460
463
462
460
460
464
461
458
459
464
464
463
464
467
468
468
472
475
473
472
475
474
472
471
474
471
467
467
471
469
467
467
469
465
464
467
470
468
467
470
472
470
470
473
471
465
462
462
461
458
459
462
460
461
464
467
467
467
468
467
465
466
468
467
464
464
468
467
466
465
466
464
463
465
470
468
467
469
471
468
467
470
472
472
472
476
477
474
476
482
483
482
483
485
484
485
489
491
490
489
493
495
495
495
497
497
492
492
498
498
498
500
504
503
501
502
503
499
497
498
501
499
498
501
500
496
493
495
494
493
495
499
497
494
494
496
494
492
492
492
492
494
499
502
501
501
505
506
504
504
508
508
506
508
512
512
510
510
512
509
506
510
514
512
510
512
515
517
519
523
522
519
517
516
508
503
521
558
596
620
626
610
576
549
543
543
538
533
534
534
532
532
538
538
538
541
546
544
544
547
551
551
551
554
558
559
561
567
567
563
564
570
569
565
564
567
567
566
565
566
565
565
568
573
572
575
581
583
580
581
588
591
590
589
590
587
583
581
580
575
570
570
572
567
564
568
571
568
567
568
569
568
568
570
570
568
568
571
569
565
564
565
560
555
554
557
555
552
552
549
544
543
548
548
545
543
545
545
544
543
546
546
542
541
542
540
538
539
539
535
534
537
538
534
533
537
536
534
533
535
535
532
531
531
527
525
525
525
520
517
518
520
519
519
522
522
519
520
526
527
527
528
530
524
520
524
528
526
525
528
532
529
527
527
528
528
527
530
528
524
522
524
524
523
524
526
522
520
521
521
518
518
520
520
517
515
517
517
516
516
521
520
516
512
509
500
494
504
535
569
593
600
586
553
524
516
513
511
510
511
510
510
513
519
520
520
523
525
523
522
526
531
529
526
528
531
531
530
535
536
533
531
535
534
533
535
539
538
536
537
537
538
540
543
545
544
546
552
555
554
553
555
555
554
555
559
554
549
547
548
548
547
547
548
544
542
543
542
538
536
539
539
536
534
533
529
520
523
534
537
536
537
537
533
530
531
531
528
526
527
527
522
521
523
522
519
517
521
524
522
522
523
520
517
518
518
514
514
518
516
509
511
521
522
516
514
515
513
512
513
516
515
515
514
511
504
500
505
511
510
507
507
506
503
501
503
502
499
498
499
503
507
507
511
508
507
512
516
513
511
513
514
511
509
513
511
508
508
511
509
503
500
498
493
500
529
565
586
586
571
542
513
503
504
506
504
503
508
511
508
508
512
516
523
529
533
531
529
528
536
540
547
557
561
562
565
571
574
574
577
583
583
577
582
593
598
598
599
602
601
601
604
605
603
604
607
604
601
603
604
601
597
596
599
595
590
588
589
587
583
584
584
579
578
581
580
574
569
569
566
561
560
565
565
560
558
559
555
550
549
550
548
545
546
545
541
538
540
540
537
536
538
536
530
529
531
529
525
523
524
520
519
520
520
515
512
513
513
510
509
513
512
510
507
508
505
501
501
503
501
499
499
499
495
493
496
496
492
491
495
498
496
496
499
498
493
490
490
487
482
480
482
479
478
480
482
480
478
479
478
475
474
477
474
469
468
474
477
477
480
486
484
482
482
485
485
484
486
486
484
481
483
484
480
477
479
477
471
467
463
458
469
500
540
562
566
552
520
489
477
477
478
473
471
475
476
475
476
481
479
476
477
480
479
478
479
480
476
474
476
476
473
472
476
478
476
476
480
479
478
478
481
480
478
480
485
485
485
488
491
491
492
497
499
498
499
503
503
500
498
500
496
491
490
491
488
484
484
487
484
483
486
487
483
481
481
480
478
478
480
478
473
472
474
472
466
463
467
467
466
467
468
465
464
467
468
465
463
465
465
464
463
467
467
464
463
465
465
464
465
466
463
461
463
463
460
458
461
462
460
458
464
466
467
468
471
471
472
475
480
480
480
483
486
485
485
489
491
488
487
491
493
493
496
503
506
509
512
518
521
521
523
527
525
523
527
532
530
528
530
531
530
530
531
529
527
528
532
531
530
531
535
533
532
535
539
537
537
541
542
537
535
542
544
539
538
541
542
542
543
546
544
542
545
547
544
536
529
529
541
570
610
635
638
622
594
567
556
553
555
552
548
549
552
552
553
558
563
564
567
572
573
572
573
580
582
581
582
586
585
583
585
589
587
586
588
592
589
587
592
596
593
592
596
598
598
599
603
604
601
601
605
606
603
602
603
600
595
594
595
591
586
585
583
580
578
579
576
572
571
574
573
571
570
574
572
568
568
568
566
565
567
567
564
563
565
564
561
561
565
566
565
565
567
566
564
566
568
563
560
560
559
556
553
554
553
550
548
551
548
543
541
543
542
539
541
544
540
537
538
541
539
538
539
542
542
544
548
549
548
548
551
550
548
549
552
550
548
549
552
551
551
554
556
553
550
553
555
554
553
556
555
551
548
549
549
546
547
549
546
540
538
540
539
537
538
537
532
525
519
511
507
524
558
587
596
587
566
534
515
509
509
507
503
503
504
502
503
507
509
505
502
506
507
507
507
510
510
509
514
520
522
522
525
528
526
525
530
534
533
533
536
536
533
530
532
532
531
533
536
534
530
530
532
529
527
527
526
520
515
512
508
502
499
501
498
493
492
496
495
491
491
493
492
492
492
492
489
488
490
491
489
488
490
489
485
483
485
483
482
483
486
484
481
481
482
478
475
475
475
472
469
470
468
462
459
462
461
458
457
458
455
453
455
458
456
455
456
460
459
457
459
459
457
455
457
457
452
450
454
454
450
449
454
453
452
456
463
469
479
497
516
534
554
575
592
607
623
639
651
660
671
683
689
693
699
706
710
713
718
723
725
727
732
735
736
737
742
743
740
739
742
741
740
739
741
738
735
733
731
725
718
714
714
710
707
706
704
699
696
696
693
688
684
682
672
659
653
666
693
728
755
762
741
705
675
664
659
657
654
650
646
643
643
641
638
636
636
632
630
629
630
627
625
625
625
620
617
619
619
613
610
612
612
608
605
605
602
599
597
598
595
591
591
592
588
584
585
586
583
582
583
582
578
576
577
572
566
563
564
560
554
553
556
554
550
550
550
548
547
549
548
544
542
545
543
537
532
531
528
523
522
523
519
517
518
519
517
516
520
521
517
514
516
513
507
504
503
498
492
492
495
492
488
488
489
484
480
479
477
471
466
464
462
458
454
454
452
448
446
447
445
443
443
444
441
437
435
436
433
431
432
431
427
425
425
424
420
421
425
424
420
419
422
419
417
418
420
417
415
417
419
416
414
417
420
418
418
421
421
419
420
423
419
415
417
422
422
420
422
424
422
420
421
419
416
415
418
418
416
416
418
416
412
410
411
410
409
410
413
412
410
412
412
409
406
408
404
394
386
386
401
426
451
462
448
416
375
349
332
318
307
294
277
264
255
246
233
221
213
205
193
182
172
156
142
130
122
111
101
98
96
91
85
82
84
84
82
83
85
90
93
93
92
94
99
102
105
107
112
113
114
117
122
122
121
124
131
134
136
141
148
149
151
156
162
165
168
174
176
177
178
180
181
181
182
190
195
198
199
199
196
192
194
196
193
192
194
193
189
189
193
195
194
198
206
209
212
220
227
230
237
251
265
275
285
297
307
313
322
334
345
351
358
369
377
382
389
400
405
409
416
425
428
431
438
446
449
453
461
468
472
477
486
492
494
501
512
518
523
529
537
540
542
549
558
563
567
574
579
580
584
592
597
601
604
612
616
618
622
628
631
634
642
650
650
651
657
663
663
663
670
674
674
674
678
679
678
682
689
690
688
684
680
674
677
699
734
758
764
757
733
701
685
683
681
681
680
684
685
684
684
689
688
687
690
694
694
692
694
692
689
686
689
689
684
679
680
680
678
676
677
675
673
675
679
676
674
675
676
674
672
674
674
672
671
676
678
677
678
680
676
672
672
673
668
662
660
658
652
646
643
641
637
632
632
629
625
623
624
623
622
621
622
616
612
612
612
609
609
612
615
611
608
609
609
608
608
613
615
613
612
612
607
603
604
608
606
604
605
606
604
602
604
606
601
596
597
596
593
590
593
590
587
586
588
585
581
582
585
583
580
581
581
578
576
576
577
574
574
578
579
578
577
579
577
574
572
573
569
565
564
565
561
559
561
562
558
554
555
552
546
542
543
540
537
537
540
539
536
536
538
538
537
539
541
539
538
543
546
546
546
551
552
550
548
553
553
550
549
550
549
548
549
551
551
549
551
552
549
543
538
534
546
578
623
649
653
638
609
577
563
560
560
555
551
553
553
553
553
558
560
558
557
560
558
555
555
557
555
552
552
554
553
551
553
554
550
550
555
560
560
559
562
561
559
559
562
561
558
558
562
561
559
560
566
567
566
567
568
566
563
565
565
563
561
561
560
555
550
550
546
542
541
541
537
532
531
531
528
527
528
526
521
520
521
520
516
514
517
515
513
511
513
510
506
508
512
511
508
510
514
513
512
514
516
516
515
517
515
513
514
517
515
513
514
516
513
511
512
515
515
515
516
517
516
515
518
520
518
518
521
519
515
514
515
510
507
506
506
503
500
503
503
500
501
506
507
505
504
507
507
504
504
507
507
503
503
508
509
510
511
513
511
511
514
516
513
509
511
509
507
509
512
509
506
507
512
511
508
505
504
500
500
504
509
508
508
512
515
515
516
521
520
517
516
516
509
503
515
546
578
600
607
596
566
539
532
533
533
534
538
539
537
537
542
544
546
551
557
556
556
559
564
565
565
569
572
570
571
576
581
581
583
587
589
589
592
596
594
593
595
599
599
598
600
603
601
600
603
606
605
604
606
605
601
600
599
595
590
587
585
580
573
570
568
563
558
559
559
556
554
556
558
555
554
556
555
552
551
550
546
542
543
546
543
539
541
546
545
542
542
542
538
537
540
541
538
534
535
533
530
528
529
527
524
526
527
525
524
526
527
523
520
520
519
515
514
516
514
510
507
508
508
506
506
508
506
505
506
505
501
497
495
493
490
491
494
491
487
486
488
487
486
486
489
487
487
489
491
487
483
484
483
476
473
477
477
473
472
478
480
479
479
479
475
473
478
483
483
482
484
488
488
487
489
489
487
485
487
483
474
467
470
484
513
549
573
573
554
522
502
493
488
489
490
486
483
485
486
487
489
493
491
488
491
496
496
493
493
498
497
497
500
503
502
500
505
508
507
507
510
511
511
512
517
515
514
517
522
522
524
530
536
538
539
543
547
548
549
553
554
550
548
550
548
544
542
542
538
533
532
533
529
524
524
524
520
519
520
520
518
517
519
517
513
510
513
513
511
514
518
516
513
514
518
515
513
514
514
511
510
513
512
511
513
519
521
520
521
525
525
523
524
529
530
532
534
535
532
531
535
536
532
532
536
538
536
537
541
540
539
540
543
541
539
540
543
541
538
539
539
536
535
536
534
532
531
533
531
528
528
531
529
526
528
531
528
525
527
529
527
525
525
525
524
525
527
526
523
520
522
522
523
527
535
541
545
551
557
554
553
556
556
553
552
557
559
557
556
558
558
556
556
558
555
548
543
536
524
526
551
589
617
629
621
592
555
538
533
529
526
525
525
520
515
515
520
522
522
525
528
524
522
525
529
528
527
530
530
526
523
525
522
518
516
518
518
519
522
524
521
518
520
520
517
514
515
514
510
510
514
514
516
519
525
525
525
526
528
527
524
524
525
520
517
517
516
513
509
510
509
502
499
501
498
495
494
495
493
492
494
495
490
490
495
499
496
493
494
494
491
488
489
485
481
479
481
481
480
481
483
480
477
478
479
477
474
475
477
475
472
474
476
474
475
479
479
476
478
484
485
484
486
489
487
485
487
489
488
489
493
493
491
492
497
498
496
496
499
499
497
498
502
501
500
503
507
505
503
506
508
506
502
502
501
499
501
508
510
507
505
507
506
505
504
504
500
497
498
498
493
490
491
491
488
488
491
486
476
469
473
489
519
549
562
553
530
501
488
481
479
483
487
485
483
486
489
489
491
495
496
495
495
499
499
500
504
508
506
505
509
515
516
517
524
530
534
540
551
558
561
567
577
582
584
588
593
596
600
606
611
612
613
619
624
625
626
631
632
631
631
634
635
633
632
635
634
632
631
630
628
627
628
627
622
617
617
615
611
610
614
612
607
606
607
604
599
597
600
598
595
595
596
593
591
592
592
592
594
598
598
595
594
597
597
593
591
592
588
584
582
583
582
579
579
578
575
573
575
573
570
569
569
567
563
563
566
564
560
559
559
556
552
552
552
548
544
544
543
539
538
540
539
537
536
540
539
536
534
535
528
523
525
527
524
523
524
526
525
525
529
529
528
526
528
527
526
528
532
532
529
529
531
529
528
530
530
525
520
518
511
500
498
518
549
579
593
592
569
532
510
505
501
498
495
495
493
492
493
494
490
488
489
488
485
484
486
484
482
482
485
484
483
484
485
483
484
487
490
489
489
492
496
496
496
500
500
498
499
505
507
507
509
513
513
514
516
520
520
520
521
519
514
512
515
516
513
512
517
520
519
519
523
526
528
529
532
532
533
537
540
539
536
538
538
535
533
538
539
537
536
538
535
532
533
536
535
533
532
532
527
523
523
522
517
513
515
512
509
511
515
514
510
509
510
508
506
506
507
502
500
501
503
502
501
502
502
498
497
500
501
499
499
503
502
500
500
503
500
497
497
498
495
493
497
502
501
500
503
503
500
499
500
499
495
496
501
501
498
498
500
499
496
496
497
495
493
492
491
488
488
492
491
487
486
491
494
494
495
499
500
499
502
507
506
505
507
506
502
503
510
513
507
499
493
484
486
510
549
582
599
596
576
542
526
524
525
520
515
514
512
507
506
510
513
512
511
515
517
519
522
526
525
523
524
528
527
528
532
533
530
526
528
530
530
531
535
533
533
533
537
536
533
534
537
534
532
533
535
533
530
531
532
530
528
529
526
525
524
525
521
516
514
514
510
507
507
506
503
500
498
495
491
488
488
484
477
474
474
469
464
465
468
466
464
467
471
469
468
470
470
468
467
468
469
467
468
473
474
473
473
476
475
473
476
481
480
479
481
484
482
481
484
486
484
484
487
486
482
480
482
480
475
472
473
471
469
469
471
469
468
472
474
470
466
469
471
469
467
470
469
466
464
468
468
470
473
477
476
475
478
481
480
482
487
490
486
484
485
484
482
483
486
484
482
483
487
487
486
487
490
489
490
493
492
481
470
474
493
525
554
568
559
532
502
493
490
488
491
494
492
491
492
496
495
498
502
505
504
504
510
511
510
510
514
514
513
515
518
516
517
522
527
526
526
528
530
529
528
533
535
534
534
536
534
531
533
538
538
537
538
540
537
534
534
533
528
525
526
524
519
515
515
513
509
510
518
520
517
517
520
518
516
517
520
519
517
518
518
514
511
514
513
510
509
514
515
513
513
515
514
512
514
518
518
516
516
517
516
518
522
523
518
516
519
519
518
520
523
521
518
517
519
516
514
515
518
516
513
513
514
512
511
515
516
514
514
518
518
516
517
517
513
512
518
524
522
520
522
524
523
522
526
530
529
527
530
532
532
535
537
534
531
532
536
537
536
536
538
534
529
530
530
528
527
530
531
526
521
522
519
516
515
517
515
509
502
496
491
500
532
568
591
598
590
564
532
520
520
521
520
521
526
524
521
524
534
536
535
536
538
536
537
538
537
535
534
536
536
534
534
538
539
537
538
542
541
539
541
545
542
538
538
542
541
542
545
547
547
550
555
557
557
559
562
562
561
563
565
560
557
558
560
557
555
557
558
554
552
553
551
545
543
543
539
532
528
528
524
520
518
519
517
516
520
522
518
517
518
519
516
514
516
512
508
507
511
510
507
506
507
505
504
505
505
500
498
499
501
498
498
500
499
494
493
497
497
495
495
498
499
497
498
500
497
494
495
493
488
484
486
489
489
490
493
493
490
489
494
495
495
498
501
500
499
502
502
498
495
496
498
495
494
497
498
496
495
499
500
501
503
506
503
499
499
502
498
496
497
499
494
492
498
502
500
498
500
498
490
484
482
485
504
538
568
576
564
540
512
494
488
489
491
487
486
492
494
493
493
497
496
493
493
495
494
492
494
497
493
491
495
500
500
498
502
502
500
499
501
501
502
504
508
508
507
508
512
510
508
509
513
513
514
516
517
515
514
515
512
506
504
506
504
498
497
499
498
497
499
502
499
497
496
495
490
486
488
489
486
484
487
487
482
481
483
482
481
482
487
488
489
493
497
495
496
500
503
500
499
503
506
506
506
509
508
505
506
509
508
506
506
508
506
506
509
510
508
507
508
507
505
504
504
502
500
501
505
504
501
500
503
501
499
501
503
500
499
502
505
503
503
507
509
509
511
518
519
517
520
525
525
524
524
524
519
518
522
526
523
522
526
526
523
523
529
530
528
526
524
517
510
510
528
555
585
603
603
584
554
536
529
525
525
527
527
526
526
530
530
530
531
534
532
530
534
536
533
530
531
531
526
522
525
525
522
519
522
522
520
518
521
523
523
524
526
526
526
530
534
533
534
537
540
541
542
545
545
542
541
541
538
534
534
539
540
540
542
542
539
537
539
541
538
535
538
539
533
530
535
538
535
532
534
535
533
533
533
531
528
528
531
528
524
524
524
521
519
522
522
518
517
524
527
526
526
529
530
528
527
526
522
519
520
523
518
514
515
515
511
511
516
516
513
513
518
518
517
517
520
518
516
516
515
509
506
508
508
503
500
502
502
500
500
504
505
502
500
501
499
497
498
499
496
493
496
498
496
495
499
502
502
502
507
508
508
507
510
507
503
505
509
506
503
503
503
500
498
498
498
494
494
498
498
495
494
497
495
492
491
492
484
472
465
471
494
530
564
578
567
541
510
492
483
479
480
483
485
488
493
493
493
498
503
503
503
508
513
513
514
517
516
514
516
524
527
524
525
531
534
534
535
541
542
541
543
546
546
546
550
553
553
553
558
562
562
564
567
568
566
566
568
564
562
563
566
563
560
561
561
556
554
557
559
556
554
554
554
552
553
559
560
558
559
562
560
560
561
563
560
557
560
562
561
560
563
565
564
563
565
563
560
559
562
560
557
557
561
560
558
558
558
554
553
556
556
553
554
558
559
557
554
554
550
543
540
539
533
528
528
532
531
529
529
530
528
528
532
534
533
531
532
530
527
527
531
530
528
528
528
523
517
518
521
520
519
521
523
522
521
522
521
519
520
522
521
519
521
524
522
520
521
524
522
519
521
521
519
518
523
525
526
528
531
529
524
521
522
520
517
515
515
509
505
508
512
511
509
511
512
509
506
505
498
491
499
527
559
583
590
581
553
523
512
511
508
507
507
507
504
502
504
503
501
499
501
499
496
495
498
498
499
501
505
502
501
504
509
510
511
518
523
524
527
531
532
531
533
538
540
540
542
545
545
547
550
554
553
553
557
558
557
554
556
556
552
551
553
550
547
548
551
550
548
548
548
546
544
546
546
542
541
545
546
540
537
538
536
533
530
532
531
528
529
531
528
526
528
530
526
524
526
527
524
521
524
526
526
525
525
524
520
520
521
518
514
515
517
516
515
518
520
518
515
520
523
520
518
523
526
525
524
526
525
523
525
527
524
521
523
524
524
524
527
528
526
527
530
530
526
523
525
524
521
520
522
520
518
518
518
516
518
521
522
518
515
516
515
513
514
518
518
516
516
521
523
520
518
519
517
514
512
507
496
491
503
532
562
584
592
577
544
517
509
505
501
501
504
504
501
502
505
504
504
508
510
509
506
507
506
505
506
512
513
514
516
520
522
522
525
529
529
530
534
536
536
537
542
544
543
544
550
553
551
550
550
548
547
550
554
553
549
549
551
549
545
544
544
544
545
552
557
561
567
578
584
587
593
602
608
611
616
624
628
631
635
637
636
636
641
646
645
645
650
652
652
654
657
656
654
655
659
657
654
651
649
644
638
637
637
635
632
634
633
629
627
628
627
622
619
620
616
611
609
608
605
602
601
602
599
595
594
591
587
585
586
584
580
577
578
572
564
563
565
562
558
557
557
553
549
549
549
546
543
543
542
539
538
542
540
535
532
533
531
528
528
530
528
524
525
528
524
521
524
527
525
523
524
524
521
518
520
521
520
523
527
526
526
527
528
524
520
522
523
520
517
519
519
517
515
517
517
513
510
509
504
496
488
483
487
512
548
578
585
572
546
517
502
498
499
498
493
491
492
490
490
493
495
493
492
493
497
495
494
497
501
500
499
502
505
504
506
510
509
508
509
512
511
509
510
512
510
508
510
511
508
507
510
509
507
507
511
512
512
513
515
513
509
508
509
507
503
503
505
501
500
502
504
503
501
504
505
504
502
505
504
501
499
500
498
495
497
500
497
493
492
494
494
494
497
499
496
495
496
497
495
495
497
496
494
496
500
500
498
500
503
503
502
503
504
502
501
505
505
503
502
504
502
500
501
502
499
497
499
502
499
498
502
506
508
509
512
515
514
514
520
523
520
518
521
521
520
521
524
523
522
522
524
522
522
525
526
524
523
524
524
521
520
521
520
519
521
524
523
521
522
524
522
519
519
520
517
517
520
524
524
523
526
524
520
517
517
516
514
515
515
510
507
508
512
510
508
509
509
501
492
487
486
498
528
563
577
571
550
519
496
485
482
486
485
484
487
490
489
487
491
495
494
495
499
499
498
499
502
502
501
503
507
508
507
509
511
510
510
513
516
515
514
517
520
520
522
526
528
528
532
537
536
535
538
542
542
542
544
544
540
536
536
536
532
530
532
531
528
526
528
527
525
526
528
525
522
522
525
524
522
524
527
527
527
530
529
527
527
529
528
523
521
524
522
521
521
523
522
521
525
527
525
523
526
528
525
523
525
523
520
519
522
521
519
520
523
521
517
517
520
517
515
517
517
515
516
521
523
520
520
523
523
522
522
525
523
521
523
524
520
517
518
520
518
516
519
518
516
516
517
515
510
507
507
504
502
503
507
505
503
504
506
503
501
502
503
499
497
498
497
496
495
497
496
494
492
490
487
496
525
563
584
585
572
543
515
503
501
502
500
499
501
502
501
502
507
508
508
509
513
513
512
515
517
515
515
517
519
518
520
526
527
525
525
529
528
526
526
531
533
533
535
538
539
541
544
547
546
545
549
550
548
548
551
549
546
546
547
545
541
539
541
536
531
529
527
520
515
515
513
508
504
505
504
500
498
500
498
495
494
496
494
492
492
493
490
488
489
490
487
485
488
490
489
487
489
489
488
488
489
488
485
487
490
488
486
488
489
485
484
487
486
482
480
484
486
483
481
483
481
479
478
481
479
478
478
479
475
474
475
475
472
471
474
476
475
475
479
478
476
475
477
476
475
478
480
478
476
479
482
481
481
484
485
483
483
486
486
485
486
491
490
487
486
488
488
488
491
494
492
491
494
497
498
500
505
507
504
503
507
506
503
502
503
501
499
500
502
499
497
500
501
497
496
497
493
483
475
483
508
544
576
596
589
563
531
517
510
507
504
503
497
493
494
496
494
492
494
495
494
494
500
502
501
501
504
502
502
503
506
505
503
507
510
506
503
506
509
509
509
513
513
510
510
513
510
505
505
510
511
511
516
521
522
522
526
528
525
523
528
531
529
528
530
528
525
526
529
527
523
523
524
521
515
516
519
516
515
516
515
510
508
509
508
503
502
504
505
503
502
505
504
504
506
508
504
501
503
505
504
504
506
507
506
507
511
511
509
510
514
515
515
517
518
515
512
514
516
514
513
515
517
515
513
515
516
514
514
519
519
517
518
520
519
518
520
525
524
523
526
529
529
529
533
534
534
534
538
539
537
536
539
537
535
536
537
535
534
536
540
540
539
541
543
543
543
546
546
544
545
550
552
550
551
553
551
548
549
550
549
547
551
554
553
553
556
557
554
553
559
560
556
551
546
541
546
572
607
629
634
626
599
569
556
555
555
552
549
552
553
552
552
554
554
551
553
556
553
550
553
558
557
555
556
558
557
557
560
560
556
556
560
560
558
557
562
563
563
565
567
565
563
566
569
569
569
572
573
571
572
576
577
572
568
567
562
556
552
551
547
542
540
539
533
531
532
533
531
529
528
525
522
524
527
526
524
522
524
521
517
516
517
514
511
514
517
512
507
508
509
507
505
508
507
504
504
506
503
500
500
503
500
499
500
502
498
496
497
497
495
493
495
494
493
494
497
495
493
492
494
494
491
491
492
490
490
492
495
494
492
493
493
490
489
494
496
493
493
498
498
496
499
504
504
503
504
507
506
508
515
520
520
521
526
529
529
532
541
543
542
544
548
549
548
549
553
553
551
548
542
533
538
568
606
631
636
626
597
566
553
552
550
549
548
551
550
549
552
556
554
553
556
559
557
556
557
557
555
555
558
557
555
556
560
559
558
560
562
557
555
557
559
555
551
552
552
548
546
547
544
540
540
542
541
537
536
537
533
529
528
528
522
518
517
516
511
507
508
506
501
497
497
494
490
488
488
483
479
479
482
479
476
477
480
480
480
483
483
480
480
485
486
485
485
487
484
480
480
483
481
478
479
482
481
479
479
477
472
470
472
473
469
468
468
465
461
461
462
458
455
455
459
458
456
459
461
459
457
459
459
457
457
459
459
457
458
464
464
463
465
471
471
469
470
474
474
474
477
479
476
476
479
478
476
474
476
475
472
475
481
482
481
482
486
484
483
484
484
480
480
486
490
489
489
493
493
492
492
495
495
495
497
502
501
500
502
505
502
499
503
507
503
496
489
482
488
517
561
592
601
591
567
535
521
521
526
524
522
527
532
534
538
544
547
547
547
553
555
555
555
558
557
558
560
564
564
565
569
572
573
574
577
579
578
577
580
581
579
578
581
580
577
577
580
578
576
579
584
582
582
585
588
587
583
583
581
578
577
581
579
574
572
574
570
564
562
562
556
551
549
548
544
540
540
539
536
534
536
537
533
532
534
533
530
530
531
529
527
526
527
522
519
520
520
519
518
521
520
517
515
517
515
512
511
514
511
508
507
508
505
501
504
507
505
504
506
509
506
505
506
504
501
499
499
495
490
488
489
486
485
486
489
489
487
488
488
485
482
484
486
485
484
486
484
480
481
484
482
478
479
483
482
479
478
478
473
470
474
476
472
471
474
474
471
471
475
475
475
474
470
463
460
471
501
532
552
557
543
509
484
478
478
478
480
484
482
479
479
482
480
477
479
484
485
484
488
493
493
493
495
496
493
492
495
494
492
493
495
494
490
491
493
491
490
493
496
496
495
497
500
500
502
506
506
505
504
507
506
501
499
499
495
491
491
492
489
487
487
489
486
485
488
490
489
490
494
495
494
495
498
497
495
495
498
497
496
498
501
499
498
499
499
497
496
500
501
500
498
501
499
498
501
507
507
505
507
511
508
505
507
508
505
504
506
506
503
502
504
503
501
502
505
503
501
501
506
506
505
506
506
501
497
503
508
508
508
509
509
506
505
508
506
504
504
506
505
504
507
511
510
511
515
518
516
514
517
521
522
522
526
526
524
522
524
523
520
521
523
521
518
518
520
518
516
517
519
517
512
507
501
496
506
536
569
591
595
581
547
516
506
506
505
501
500
501
500
501
505
507
505
505
509
510
506
506
509
509
507
507
510
507
504
507
511
510
508
510
510
507
509
514
516
514
514
518
520
520
521
524
521
520
522
524
523
522
522
523
523
522
521
518
512
508
509
508
504
502
501
499
498
499
502
501
500
501
502
499
499
502
504
501
498
502
505
504
503
505
504
501
502
504
502
501
502
503
501
502
504
506
503
503
507
510
509
509
513
512
509
508
510
507
504
505
507
506
503
503
505
503
500
503
504
503
502
505
506
503
502
506
506
505
506
508
507
506
507
511
509
508
510
513
510
509
512
514
512
512
516
518
516
516
519
519
516
517
520
518
515
516
517
514
511
510
510
507
504
507
506
502
500
504
503
501
501
503
501
499
500
501
497
494
496
498
495
493
495
498
498
498
502
500
498
498
502
501
497
492
486
478
486
516
557
585
595
586
557
521
506
505
504
497
495
497
496
494
496
500
500
497
498
502
502
502
507
510
509
509
512
513
510
509
514
515
513
515
519
520
520
522
526
526
525
528
530
528
527
530
535
537
539
545
549
549
551
554
552
550
551
553
550
546
544
544
539
535
537
539
537
535
535
534
530
528
530
529
525
525
527
525
523
524
527
526
525
525
527
526
526
531
534
534
534
538
540
539
539
544
543
541
542
546
544
541
541
545
544
544
544
545
543
541
542
541
538
536
538
537
535
535
538
538
536
535
536
533
531
534
535
532
532
536
536
533
534
539
540
536
535
538
537
534
533
535
534
533
532
533
532
530
531
531
529
529
532
533
531
531
534
535
533
535
539
538
536
538
541
538
536
539
541
539
538
539
538
537
538
542
543
540
539
540
534
523
517
525
545
575
600
608
596
568
542
532
528
528
535
538
537
537
539
539
538
540
545
545
545
548
552
551
550
551
555
557
555
555
556
555
555
558
558
556
557
560
560
559
559
563
563
561
562
565
564
563
565
569
567
566
567
567
564
561
560
556
551
548
549
544
538
534
535
530
527
528
529
525
522
523
523
520
518
520
520
519
518
520
518
514
514
516
514
511
512
515
513
511
512
511
507
505
508
510
507
504
505
505
504
504
507
506
504
507
509
506
505
507
509
507
505
506
505
500
498
501
503
500
497
498
496
493
495
495
492
490
490
491
488
485
484
485
484
484
486
486
484
485
489
488
485
485
488
486
482
482
484
481
478
478
481
480
480
482
481
476
473
475
477
475
473
475
473
470
471
474
473
472
474
475
467
458
457
473
499
533
558
560
540
508
487
480
475
476
481
479
478
480
484
484
485
490
493
491
489
493
495
494
495
498
500
499
500
505
506
505
505
509
508
507
512
517
516
515
518
519
516
515
520
523
523
524
529
531
529
529
532
534
536
538
540
537
534
533
533
529
525
526
525
521
520
522
522
518
516
521
521
518
519
524
523
520
520
520
516
514
515
516
513
512
515
516
513
512
514
511
507
505
504
500
499
502
504
501
498
501
504
502
501
504
505
501
499
501
501
498
497
498
495
490
489
494
495
495
497
500
499
498
500
502
498
496
498
499
497
497
499
497
494
493
495
493
489
490
494
492
492
494
495
491
489
491
492
490
489
493
493
491
491
494
494
491
492
498
497
496
498
500
499
496
497
498
495
494
497
497
495
495
501
502
500
500
503
501
499
500
502
500
497
498
501
499
499
502
504
502
501
505
502
495
488
489
496
520
557
590
602
592
569
539
521
515
516
517
514
512
515
516
514
513
516
517
516
516
519
519
519
521
525
524
524
527
531
531
531
534
535
531
528
532
533
532
532
536
534
531
531
535
534
533
535
539
539
539
543
546
545
547
551
553
550
549
551
548
544
543
544
539
535
534
536
533
531
530
531
530
527
529
531
528
526
528
528
526
525
526
523
520
519
521
519
517
519
521
520
520
522
522
519
518
522
522
520
518
520
518
516
516
520
519
516
517
519
518
517
518
520
518
517
519
520
518
517
521
520
517
515
519
519
517
517
519
516
513
513
515
512
509
511
511
508
507
510
508
504
503
506
505
503
501
501
499
498
500
503
501
501
504
508
507
506
507
508
505
505
509
511
511
511
513
511
508
508
511
509
506
506
507
504
502
505
509
510
510
513
512
505
497
495
501
524
556
581
584
570
546
521
506
500
502
507
506
505
510
515
515
516
521
522
521
523
527
526
524
525
529
530
530
534
538
537
536
539
541
539
538
542
544
544
545
550
553
553
554
557
555
554
557
560
557
555
556
557
555
555
558
558
554
551
550
546
542
540
542
540
537
535
535
532
531
533
534
530
527
529
530
528
526
529
529
528
526
528
527
525
525
529
529
526
527
529
528
527
529
529
526
524
525
525
522
520
524
523
521
523
528
527
524
522
523
522
520
521
522
520
519
520
521
517
514
515
514
510
507
509
510
506
507
509
508
506
508
511
509
508
510
511
509
508
509
510
509
507
509
509
507
507
510
510
507
507
509
508
507
509
513
511
511
514
515
512
512
515
516
515
515
519
518
514
513
513
510
507
507
510
508
506
507
509
508
507
510
511
508
507
508
503
493
488
498
520
550
574
582
568
540
511
501
496
496
499
500
500
500
504
505
504
505
510
510
508
507
510
510
511
513
516
513
513
517
520
518
516
519
521
519
518
520
521
519
520
525
524
521
520
522
520
521
524
528
527
527
529
532
532
533
536
534
530
528
529
527
524
522
522
520
519
520
523
521
518
519
520
518
517
520
521
519
519
522
521
518
518
521
521
519
520
523
522
521
521
523
522
521
524
526
524
523
526
527
525
525
528
526
523
522
525
524
523
524
525
522
521
523
523
519
517
521
522
519
518
521
521
517
516
518
519
519
519
520
517
514
515
516
513
510
512
513
510
510
513
513
511
511
513
512
510
509
513
514
512
512
514
511
510
511
512
510
509
510
511
508
507
510
510
508
509
513
511
508
508
512
511
511
514
519
519
518
521
524
523
523
527
527
525
525
528
528
527
525
527
525
522
523
526
525
522
520
515
506
505
524
556
585
601
600
577
539
518
514
511
508
507
509
507
507
512
516
516
515
518
520
519
520
524
526
525
526
529
529
527
530
535
535
533
534
536
535
532
531
531
530
529
533
533
530
530
535
536
534
535
538
537
535
536
540
538
536
537
539
536
534
534
532
525
521
522
519
516
514
518
517
515
516
519
518
516
517
520
519
518
521
525
524
524
528
531
534
537
544
546
548
552
559
563
564
568
575
577
578
582
587
587
587
591
594
594
595
600
602
600
600
603
601
597
596
597
594
592
593
593
590
586
587
588
585
582
583
582
579
576
577
576
571
571
571
567
563
561
560
554
551
550
552
550
549
551
552
550
548
549
548
544
542
544
543
539
538
539
538
537
540
542
538
534
532
530
526
525
527
527
524
523
525
524
519
516
517
514
510
507
503
493
485
490
513
542
566
575
564
535
505
496
492
489
490
493
493
492
494
497
496
496
500
504
502
501
504
507
506
504
507
508
507
507
510
510
509
510
514
514
511
512
515
513
511
512
514
512
512
516
520
521
523
529
530
528
528
530
528
524
522
521
518
515
513
514
509
505
506
508
505
502
504
505
505
505
507
506
501
500
502
500
497
496
498
495
493
495
496
493
490
492
491
486
483
484
484
481
480
483
482
480
480
482
482
480
480
482
479
478
480
482
481
481
483
484
481
480
484
486
483
481
484
484
483
484
487
486
486
487
489
487
486
487
487
484
482
485
485
482
481
483
481
478
476
477
475
473
474
476
474
472
473
474
473
473
476
478
476
475
478
477
474
472
474
473
472
474
477
474
471
473
475
473
472
473
473
470
467
469
470
469
468
472
471
468
468
471
470
467
470
474
473
471
472
473
472
471
473
473
469
465
461
453
448
463
498
532
551
555
540
504
476
470
471
470
467
467
467
465
464
468
470
471
472
476
477
477
480
485
487
488
492
496
495
495
499
504
504
504
507
509
508
508
512
512
510
511
515
514
514
517
521
521
522
524
526
525
526
529
531
529
527
530
531
528
527
529
527
523
522
525
523
521
521
523
520
516
516
516
514
513
515
516
513
511
514
513
510
510
513
513
510
510
513
511
510
511
513
509
506
507
507
504
501
503
504
503
504
507
506
504
505
506
504
501
502
505
504
502
505
507
504
500
503
504
503
502
504
503
501
503
507
505
503
504
506
504
502
502
504
501
499
500
501
498
497
501
501
499
498
502
503
502
501
504
503
501
501
504
502
502
505
510
510
511
515
516
514
513
516
515
512
511
514
512
510
512
515
512
510
512
514
513
513
515
517
514
512
513
512
511
511
515
515
513
514
517
516
514
513
514
511
508
505
500
490
486
501
533
565
586
590
574
542
519
514
512
511
512
514
513
512
515
521
521
522
526
530
530
529
533
536
535
535
538
537
533
532
537
537
536
536
538
536
534
537
542
543
544
549
552
551
553
557
558
558
560
564
563
561
564
569
568
566
566
565
561
557
555
553
549
545
545
543
539
539
542
541
537
534
536
535
533
533
534
532
531
532
534
529
525
526
527
524
522
525
524
522
520
523
523
521
523
525
524
521
522
525
523
521
522
525
524
525
528
527
524
524
527
527
526
526
528
528
527
528
529
524
522
522
523
520
519
521
522
520
520
522
521
518
518
520
517
515
514
516
515
512
512
513
510
509
511
512
509
506
508
509
508
508
511
509
507
507
512
514
513
514
515
514
514
517
519
518
518
522
522
520
520
524
523
521
521
523
520
513
505
501
505
526
560
589
594
580
554
526
510
506
510
514
514
515
520
522
522
524
530
532
533
536
540
538
537
540
542
541
542
545
544
541
540
543
542
539
537
539
539
537
537
539
535
533
535
537
535
533
535
538
537
534
535
535
532
531
532
531
528
528
528
524
521
522
525
523
522
523
524
520
517
519
519
517
518
521
519
516
514
517
515
512
511
512
509
505
505
505
502
501
503
506
505
503
506
505
502
500
503
501
498
498
501
499
496
498
501
499
497
497
498
494
492
495
494
491
490
493
491
488
487
489
490
490
493
497
496
496
498
501
501
500
503
504
501
502
505
506
504
504
506
504
502
502
504
502
499
500
502
500
497
499
501
500
498
499
498
495
495
498
496
495
496
499
499
497
498
500
496
495
498
501
501
501
504
505
503
501
502
501
499
499
501
501
499
499
502
501
499
498
499
496
492
488
482
472
475
501
536
565
578
573
548
511
494
491
488
484
483
485
484
483
486
488
487
486
489
490
490
490
495
497
495
494
497
496
493
494
497
496
493
494
496
492
489
491
493
490
489
492
494
492
492
495
495
495
496
500
501
501
504
509
508
510
514
515
512
510
511
510
507
506
508
508
507
508
513
512
510
510
513
512
509
509
510
508
506
508
509
506
505
509
511
509
508
510
510
508
507
509
508
507
507
509
506
505
507
509
506
504
505
506
503
500
501
501
499
499
502
502
499
501
506
506
506
508
510
507
505
508
509
508
509
512
515
513
514
518
519
517
517
520
520
519
520
522
521
520
522
525
523
522
525
528
525
524
527
529
528
527
529
526
523
523
526
524
521
522
524
522
522
526
531
531
530
533
534
533
532
535
535
534
533
536
534
532
532
535
535
534
534
532
522
513
516
532
560
588
604
599
577
547
533
527
524
528
534
533
532
536
541
541
543
547
550
549
549
552
555
555
556
559
559
557
559
564
565
563
564
566
564
561
562
564
562
561
564
566
564
565
570
573
572
573
578
579
579
581
585
583
581
580
579
575
573
573
572
568
564
565
566
561
559
561
561
557
556
558
555
551
550
551
547
543
543
543
539
537
538
539
536
533
534
535
533
534
538
536
533
532
534
531
529
530
531
529
528
530
531
527
524
525
525
521
518
520
518
514
511
512
509
506
505
508
505
502
501
501
498
495
497
498
497
495
497
496
493
494
499
500
497
497
500
501
500
501
503
502
500
502
506
503
501
504
506
504
503
508
511
509
509
510
511
510
511
511
504
499
498
498
498
501
508
511
511
510
513
514
511
510
513
512
510
509
505
496
491
502
532
563
584
588
574
542
514
506
505
505
506
509
510
509
510
514
516
516
520
525
526
528
532
536
535
536
539
542
542
543
547
550
549
549
552
554
555
557
560
560
559
561
564
565
565
568
570
570
570
574
576
576
576
580
581
579
578
581
578
574
572
573
570
568
570
573
570
568
569
570
568
567
569
568
565
564
567
566
563
563
566
565
564
564
565
563
559
559
560
558
557
558
558
554
552
554
552
548
547
549
546
542
543
544
542
538
537
539
537
534
535
535
533
530
529
527
523
521
521
520
516
515
517
514
510
510
513
511
510
513
516
513
512
514
514
512
511
514
514
511
511
516
515
512
513
516
515
512
512
515
516
518
522
526
526
526
529
531
530
530
533
533
531
531
533
532
530
531
533
532
530
529
525
517
520
543
576
601
610
605
583
552
536
533
530
529
531
536
535
535
536
539
537
535
536
538
536
535
538
539
538
539
544
544
546
549
555
556
557
560
566
567
566
569
574
575
575
579
581
579
578
582
583
582
583
589
589
588
589
590
586
581
579
578
572
567
566
564
558
555
555
554
550
550
552
552
548
547
549
546
544
544
546
544
541
542
546
544
544
546
546
542
539
541
541
537
536
536
532
528
527
529
527
525
527
530
527
525
525
525
521
519
522
524
522
521
524
524
523
523
527
527
524
525
526
523
521
523
524
520
517
517
516
513
512
514
513
510
507
510
507
506
507
511
509
506
507
510
508
506
509
510
509
511
517
519
516
515
520
522
523
525
529
528
525
526
529
528
527
529
531
530
528
530
531
529
528
532
533
530
527
523
516
516
533
563
586
593
587
568
537
520
517
518
518
518
521
522
521
522
528
528
526
526
529
528
528
530
534
533
533
537
541
540
541
545
547
546
546
549
550
548
550
554
554
552
553
556
555
553
554
555
553
552
555
556
554
553
555
554
550
548
549
546
541
540
543
540
536
535
537
534
531
532
534
531
529
531
531
529
527
530
532
530
530
533
534
534
534
536
532
529
530
532
529
526
526
526
525
524
527
527
524
523
525
523
520
518
520
517
516
517
521
520
518
518
519
516
514
515
516
515
516
522
524
523
524
527
526
525
527
531
530
529
530
534
533
532
535
537
535
533
535
534
532
531
534
535
534
535
538
535
532
531
535
533
532
535
536
535
534
537
538
535
534
537
538
536
533
531
524
522
539
568
595
608
609
596
565
544
540
540
539
539
543
544
541
540
544
543
539
539
543
543
541
542
544
542
539
540
541
538
536
537
536
533
531
534
533
531
531
534
534
532
532
533
530
530
533
536
535
535
537
541
540
541
546
549
550
552
557
558
558
560
565
566
567
570
576
577
577
581
584
583
582
584
586
584
584
587
588
585
584
586
585
583
583
586
584
582
583
585
584
583
584
584
581
579
582
582
580
579
583
582
580
579
581
579
576
579
583
580
577
578
578
576
573
575
575
571
569
570
569
566
565
568
566
561
560
562
559
556
556
556
550
547
548
549
545
542
544
544
540
538
539
537
534
534
537
536
534
535
538
535
532
532
532
529
528
529
528
526
526
531
534
533
533
536
533
530
529
530
527
524
525
527
523
521
523
526
523
522
523
524
519
512
509
505
511
536
569
588
590
579
553
522
508
506
507
502
500
502
505
504
505
509
510
508
508
512
511
509
511
514
512
510
511
513
513
513
515
518
517
517
520
520
517
517
520
521
518
518
522
522
519
520
523
523
525
529
534
533
531
532
532
528
523
523
521
516
511
511
507
503
502
503
500
497
498
499
496
495
496
497
495
494
497
498
496
498
504
505
502
501
503
503
502
504
506
505
505
508
511
509
507
508
510
508
505
507
506
503
503
505
503
499
498
501
499
499
502
504
500
499
503
506
506
506
510
512
511
510
514
515
513
512
515
515
514
516
519
517
515
517
520
518
517
520
523
522
523
527
528
528
528
532
531
529
527
528
525
522
523
524
520
517
520
523
520
518
521
520
515
512
514
513
512
512
513
511
510
513
516
514
511
510
511
509
508
510
511
510
509
513
512
508
507
511
509
506
505
504
497
488
486
499
522
550
572
578
563
533
511
501
497
495
497
496
493
493
497
497
498
502
507
506
505
508
511
510
509
511
511
509
510
513
513
509
508
512
511
509
509
511
510
509
511
514
511
509
512
515
514
514
518
520
518
518
522
523
522
523
527
524
520
519
522
519
514
513
514
510
506
507
508
506
505
508
510
510
511
514
514
512
512
515
513
512
514
516
513
511
514
516
513
510
513
514
512
511
514
514
513
512
514
514
513
515
518
518
517
520
524
523
522
524
525
523
522
524
524
522
521
523
521
519
519
521
517
513
514
518
517
514
516
516
514
513
515
515
512
513
519
520
518
519
522
521
520
521
523
520
516
516
518
516
514
515
515
511
509
511
509
506
504
506
504
501
503
507
506
505
506
508
506
503
504
506
506
505
508
508
506
506
511
512
509
509
512
510
509
510
513
512
511
513
516
514
511
509
503
497
505
535
569
593
601
592
561
529
517
516
512
507
507
510
508
506
508
511
509
508
510
508
505
505
509
509
508
507
510
509
507
508
511
509
507
508
509
506
505
508
509
508
507
512
513
512
513
518
517
516
518
523
521
520
522
526
525
525
525
526
524
522
524
523
519
517
520
521
519
520
523
523
521
522
524
521
520
521
523
521
520
521
521
517
514
516
515
513
512
515
514
511
510
512
511
508
508
510
508
507
510
513
510
508
510
509
506
506
510
510
506
505
508
507
506
507
508
506
506
508
511
509
507
510
513
511
510
514
514
512
511
514
512
510
509
512
511
508
508
509
508
506
508
510
509
509
512
513
510
508
509
506
503
503
508
509
508
510
514
513
511
513
516
515
514
517
517
513
512
515
515
514
515
519
516
507
500
501
511
538
571
593
591
571
542
526
518
516
521
523
521
520
523
522
520
522
525
524
523
523
526
523
520
518
518
518
518
521
521
518
516
520
522
522
522
528
528
526
525
527
525
523
526
529
528
528
532
535
535
536
541
543
540
539
543
541
536
532
532
529
523
521
523
521
518
520
521
519
519
522
523
521
521
524
525
522
520
523
522
519
518
521
519
518
519
521
518
516
518
518
515
512
513
514
510
507
509
510
509
508
513
514
513
514
517
516
515
516
518
518
520
524
527
526
527
532
534
535
538
544
545
543
543
548
546
546
547
549
547
546
549
551
549
549
554
558
560
560
564
563
561
560
564
562
560
561
564
562
560
562
565
564
565
569
573
570
564
558
552
554
574
605
624
623
607
577
549
536
531
531
529
527
528
529
526
524
527
528
526
526
528
527
524
523
526
525
523
524
528
526
524
525
527
525
522
522
521
517
514
516
517
515
514
517
517
515
516
520
519
517
518
520
516
513
513
513
507
502
501
499
495
493
495
493
489
488
492
491
491
491
493
491
489
491
494
492
490
491
492
488
485
486
485
482
481
485
487
487
488
492
492
491
492
494
492
490
491
492
489
487
488
488
486
484
486
485
483
483
486
484
481
481
484
482
479
479
481
480
479
483
485
484
482
485
484
480
478
481
480
478
478
481
479
478
480
483
480
479
480
481
477
475
474
472
466
464
466
464
460
457
459
457
453
455
457
456
454
454
455
453
452
454
456
455
453
457
459
459
461
466
468
466
467
467
460
450
448
462
489
523
550
556
537
503
481
472
467
465
466
464
459
458
460
459
457
458
461
458
455
455
456
453
451
452
454
451
451
455
455
454
454
459
458
458
458
460
458
456
458
462
461
460
464
468
468
468
473
477
477
479
486
489
489
491
495
494
492
494
500
500
499
502
505
504
503
507
511
510
510
515
517
514
514
520
522
521
524
529
530
530
532
535
532
530
532
536
535
534
538
540
537
536
538
536
533
532
535
534
532
532
533
531
529
530
531
528
526
529
531
529
529
534
536
534
534
538
539
538
539
541
540
537
538
540
536
535
538
539
536
535
539
541
539
539
544
544
542
541
543
540
537
535
537
535
532
531
532
530
529
533
534
531
529
533
535
535
537
543
543
539
538
540
537
535
536
538
535
533
535
537
535
534
537
540
538
536
532
524
522
538
573
601
613
610
592
558
539
535
534
530
527
527
526
523
522
526
526
525
526
531
531
530
532
536
535
535
537
540
538
536
539
543
544
544
549
550
548
547
549
548
546
547
550
548
545
546
551
550
549
551
555
553
551
550
547
542
538
537
535
529
525
526
522
518
518
518
515
511
512
514
511
508
509
509
505
502
503
502
497
493
495
495
492
491
494
494
492
492
495
491
488
489
489
484
480
481
481
477
475
478
478
475
473
475
473
469
468
471
468
465
464
465
463
460
461
462
458
458
460
460
456
454
459
459
457
459
464
465
464
464
468
467
465
466
468
466
463
465
466
464
464
467
468
466
467
471
473
472
473
474
468
462
465
479
500
520
533
531
515
491
483
480
478
480
489
493
495
498
506
508
509
513
517
517
518
522
527
527
527
532
535
535
534
537
538
536
535
537
536
534
536
540
540
539
542
546
546
546
550
555
555
555
558
560
558
556
559
557
552
548
548
544
539
538
541
538
536
537
538
534
531
532
533
531
528
531
531
529
529
533
532
531
534
538
537
535
536
540
540
540
543
545
544
544
547
548
548
548
553
554
553
553
558
559
558
558
560
556
554
555
556
554
552
555
556
553
550
553
555
554
554
558
559
559
561
566
566
567
568
571
569
566
568
570
568
569
575
577
576
575
577
576
573
572
576
576
575
577
580
576
572
573
574
570
563
561
560
565
579
601
614
610
598
579
563
555
552
556
558
559
565
571
571
572
577
582
583
584
588
590
588
589
594
594
592
591
595
594
592
593
596
595
593
593
594
590
587
588
589
586
583
583
580
577
577
579
576
573
572
576
574
571
571
572
567
564
565
566
564
562
563
563
560
558
561
560
557
558
561
559
557
556
557
555
554
556
557
554
553
555
556
553
552
554
554
552
550
553
551
548
548
550
548
544
545
549
547
543
543
544
541
539
541
541
540
540
544
544
542
541
543
539
534
533
534
531
529
530
532
529
527
528
528
525
524
528
528
527
527
533
533
531
531
534
532
530
531
531
530
529
532
534
533
532
534
534
531
530
534
534
532
532
536
536
535
535
537
535
533
535
536
533
527
524
522
525
540
569
591
594
583
563
536
521
517
520
521
521
522
525
523
521
524
526
524
524
528
530
528
528
532
533
531
532
536
536
534
535
538
535
532
532
535
533
531
533
535
532
531
536
537
536
537
542
543
542
544
549
550
549
550
551
548
544
544
544
539
535
536
535
531
529
532
533
530
529
531
528
524
523
523
520
517
517
518
514
512
515
517
516
516
518
519
519
518
521
521
521
523
527
527
527
529
533
532
530
532
533
530
530
533
534
530
528
530
530
527
526
529
528
525
525
526
525
524
526
527
523
522
525
527
525
524
528
528
526
526
530
529
526
526
530
529
526
525
527
525
523
523
522
517
514
517
518
515
513
514
514
509
508
511
510
508
507
509
508
507
512
517
516
517
520
523
520
517
520
519
517
516
520
519
517
517
519
515
512
512
513
507
498
492
489
495
517
547
568
570
557
532
504
490
484
487
485
484
485
489
489
489
491
491
488
486
487
489
488
488
492
493
491
492
497
497
494
494
498
498
496
498
502
502
501
503
505
503
500
501
502
501
502
507
508
508
509
514
514
512
512
513
510
507
507
508
505
502
502
503
500
498
501
500
497
495
498
498
497
498
501
499
498
499
503
503
501
502
504
501
500
505
508
506
506
510
511
508
509
513
513
511
512
515
513
510
511
513
509
507
508
509
506
505
507
505
502
500
504
504
502
503
506
505
504
506
509
507
506
508
510
507
505
506
507
505
504
507
507
504
502
503
502
499
499
500
497
495
496
497
495
493
495
497
495
494
497
496
494
492
494
492
489
490
493
490
488
488
489
487
486
488
491
489
488
491
492
490
489
493
493
491
490
494
491
483
478
479
489
514
546
569
573
560
534
509
496
491
493
494
493
493
497
498
498
502
506
506
505
507
510
508
506
508
510
508
508
511
511
508
507
509
508
503
502
505
505
502
502
503
499
497
498
500
498
496
498
498
495
494
497
498
494
492
494
491
487
486
488
484
480
479
481
478
477
480
481
479
478
482
484
481
479
482
481
479
479
483
482
479
479
482
481
480
481
483
482
481
484
486
485
484
487
488
488
488
493
493
489
489
493
491
489
491
494
492
489
491
492
489
487
490
492
491
491
495
497
496
495
497
494
490
491
494
491
489
491
493
490
489
491
492
489
488
493
495
494
493
496
497
496
496
499
497
496
497
501
501
499
500
502
499
498
500
499
496
495
499
499
499
500
503
503
503
504
507
505
501
497
493
489
501
531
561
575
574
562
532
507
497
497
496
492
492
494
492
489
491
495
494
493
496
498
497
496
500
502
499
498
502
502
501
502
507
506
503
504
507
505
503
506
510
509
509
511
512
511
510
515
517
516
517
522
524
524
526
531
531
531
531
533
530
527
527
528
525
523
525
525
521
520
523
523
520
518
521
519
516
515
516
514
512
512
514
510
507
510
511
509
507
510
510
507
506
509
510
509
511
516
516
514
515
517
515
514
516
517
513
511
513
514
509
506
508
506
502
501
505
504
502
502
506
507
507
509
512
511
511
515
518
516
513
516
515
513
513
516
518
517
518
521
520
519
520
522
519
516
517
516
512
510
513
514
512
511
514
513
511
511
515
514
512
513
517
517
517
519
522
521
522
528
530
528
525
528
529
528
527
530
529
526
525
526
520
511
505
505
513
537
570
591
589
571
543
524
516
512
516
516
515
514
517
517
516
519
523
522
520
520
521
517
514
515
515
512
511
514
515
514
514
517
516
514
515
520
519
518
520
523
520
518
522
525
524
524
527
528
527
526
528
528
525
523
526
524
520
519
520
516
513
514
516
513
511
513
515
513
511
514
514
511
510
513
512
509
508
510
509
507
507
509
505
503
504
506
503
502
504
506
504
504
507
507
505
505
509
507
504
503
504
502
499
498
499
496
494
496
499
497
497
502
504
503
506
511
512
512
515
519
521
521
525
532
533
534
538
542
543
543
548
551
551
552
557
558
558
560
566
566
567
569
572
571
569
570
574
573
572
575
576
572
571
575
577
575
575
576
575
572
572
576
575
574
575
578
577
576
577
579
577
574
576
575
568
559
554
556
576
611
646
657
645
619
591
577
573
573
574
569
566
569
572
570
569
574
575
573
573
578
579
576
576
579
577
575
576
580
578
577
579
580
578
577
579
580
576
575
577
576
573
573
576
572
569
569
572
569
567
567
568
564
560
558
556
550
544
543
540
534
532
533
530
526
524
526
523
519
519
520
517
515
516
517
512
509
511
513
509
506
507
506
502
500
501
498
494
491
492
488
484
483
483
478
475
477
478
475
473
476
475
472
471
474
473
471
472
476
475
473
474
477
476
475
477
480
477
475
477
480
479
480
485
486
484
484
490
491
490
492
497
498
500
505
509
510
512
519
525
525
526
531
534
534
535
539
540
540
541
544
545
544
546
550
548
546
548
550
548
545
542
537
532
539
568
601
620
620
607
574
552
546
546
543
544
544
546
545
544
545
547
545
545
547
547
544
543
546
545
542
541
544
544
542
544
547
544
541
542
543
540
538
540
540
538
539
544
545
543
543
548
549
547
548
551
548
547
550
552
548
544
543
541
535
531
532
530
525
523
524
522
518
517
520
518
516
516
517
514
512
515
518
517
515
518
518
516
515
519
518
514
513
515
514
511
512
515
513
511
512
513
510
508
509
509
507
505
509
509
508
508
511
511
510
513
516
513
508
507
508
505
503
505
507
505
505
507
507
505
505
508
509
507
507
510
508
503
500
501
500
500
503
507
507
508
513
515
513
512
516
518
515
514
517
517
515
514
516
514
512
514
518
517
516
516
511
498
489
498
525
558
585
598
588
557
526
517
510
505
502
501
498
495
496
498
496
495
497
498
494
494
499
502
500
500
503
503
502
503
506
505
503
504
507
505
503
506
509
508
507
509
510
508
508
511
511
508
508
512
513
511
514
519
517
516
517
518
515
513
513
512
504
500
505
507
505
505
511
511
509
507
510
508
505
505
508
507
504
503
509
515
517
520
523
522
522
524
524
521
519
522
521
518
518
516
510
509
514
517
512
506
505
505
499
494
494
493
490
490
493
491
488
487
490
489
487
491
495
497
498
501
505
504
504
507
509
507
506
509
508
507
508
511
509
506
507
510
508
505
508
511
508
505
506
505
501
500
503
504
503
503
507
508
508
507
505
496
486
484
503
534
568
592
594
572
536
517
510
505
501
501
500
499
501
506
506
505
507
510
509
508
510
513
511
511
515
518
517
517
521
522
520
519
523
522
521
522
527
525
523
524
528
526
525
529
532
531
531
535
536
534
535
539
540
538
539
542
540
539
541
544
542
539
541
544
542
540
540
540
536
534
538
540
538
538
540
539
536
536
539
537
534
534
536
534
531
531
532
529
526
528
528
524
521
523
523
521
521
523
521
519
519
521
518
516
517
519
518
518
519
520
517
515
518
517
515
515
518
516
510
509
513
511
507
508
513
515
516
519
523
522
523
525
524
520
518
521
520
518
518
521
521
519
520
524
521
519
521
522
518
513
508
503
500
516
550
580
588
579
556
526
510
507
508
506
503
501
503
501
501
503
505
505
504
507
507
505
505
510
511
508
509
514
515
514
516
519
518
516
519
522
520
519
521
522
520
520
524
525
524
524
528
528
527
528
531
530
527
527
527
522
516
515
515
510
506
507
506
501
499
501
499
495
495
497
494
492
493
496
494
493
495
498
496
494
498
500
498
496
501
503
502
502
505
505
503
504
508
505
503
505
508
507
507
510
512
511
511
516
517
514
513
516
516
513
511
513
512
511
511
515
513
512
514
517
516
515
518
518
516
515
519
523
524
525
529
528
527
527
530
527
523
523
524
522
519
520
521
517
515
519
521
520
520
524
523
518
512
507
499
500
522
559
586
595
589
566
534
520
519
518
513
510
512
514
511
510
514
514
512
512
515
515
515
518
521
519
517
519
520
518
516
518
518
515
514
518
518
517
517
520
518
515
516
518
516
515
518
521
519
518
521
523
520
520
523
521
517
514
515
512
509
509
514
512
509
511
514
511
509
510
511
510
508
512
514
512
511
515
516
515
516
519
518
516
517
519
516
515
517
520
517
515
518
519
517
517
520
519
517
516
518
516
514
514
518
517
516
517
520
518
517
522
525
524
524
528
532
532
530
533
533
531
530
533
532
530
530
532
530
528
529
532
530
530
532
534
533
533
537
537
533
533
537
536
533
532
534
533
533
534
536
533
530
532
532
528
524
527
528
525
524
527
527
525
526
530
530
529
530
531
529
527
526
523
513
506
519
550
584
609
621
609
576
548
540
533
527
522
522
518
514
514
516
515
514
517
520
518
516
519
520
519
519
522
522
519
518
520
518
516
516
518
516
514
515
517
516
514
516
516
514
514
519
520
520
521
526
527
527
530
533
533
533
533
534
530
527
528
528
525
523
526
525
523
521
524
521
518
517
521
520
518
519
521
519
519
521
523
521
518
521
523
523
524
528
529
526
525
528
527
527
529
533
532
530
530
530
526
522
522
523
520
518
521
523
520
518
519
518
517
517
520
518
516
518
521
520
517
519
521
519
518
521
523
521
521
525
525
524
525
529
528
528
529
532
531
530
534
541
544
546
553
560
563
568
576
580
581
583
587
587
587
592
600
600
598
600
603
602
600
600
600
597
594
595
594
591
588
591
591
588
587
588
585
580
577
575
567
556
548
549
561
588
619
633
621
595
563
544
535
528
527
521
515
512
514
512
510
512
515
512
510
510
511
507
505
508
510
508
506
508
508
505
504
507
507
506
507
509
505
502
502
504
502
500
501
503
501
499
500
499
497
495
497
496
491
490
491
486
482
480
481
476
471
471
471
467
464
466
466
462
459
460
458
455
455
457
456
452
451
453
452
451
453
456
454
453
456
459
458
459
463
465
465
466
470
472
471
471
474
472
470
472
477
475
474
477
481
481
481
485
488
486
487
492
493
492
492
495
494
491
491
493
490
487
488
490
486
485
489
490
489
489
492
494
493
493
495
493
491
493
497
496
493
494
496
493
491
492
494
492
491
496
500
500
501
505
508
506
507
511
509
508
510
514
512
510
511
513
511
508
510
512
511
509
510
510
507
501
497
490
491
514
551
579
590
583
559
526
510
508
510
507
504
506
507
505
504
507
507
504
504
507
505
503
504
506
505
504
505
508
507
506
508
510
508
507
511
513
510
510
515
517
517
520
526
527
526
529
532
532
532
535
539
537
536
539
539
536
533
535
534
531
530
533
530
527
527
529
528
526
527
530
529
528
530
532
532
533
537
537
534
534
537
537
536
535
538
537
536
537
540
538
537
540
543
542
542
545
546
543
542
545
546
543
542
545
543
541
543
545
543
540
542
544
542
542
545
547
545
544
547
549
547
547
551
551
548
547
550
548
545
545
546
544
542
544
546
545
544
547
548
545
544
545
544
542
541
543
541
538
538
541
541
539
541
544
540
538
539
541
539
537
539
540
538
537
539
537
534
535
538
535
532
534
537
533
530
530
531
529
527
530
531
527
526
529
530
529
529
532
530
528
530
532
526
517
513
517
536
569
604
621
616
593
565
552
548
547
548
545
541
540
543
541
541
543
546
543
542
543
546
545
545
548
549
547
547
551
552
551
552
556
554
552
551
554
552
551
551
552
549
546
547
548
546
545
548
548
545
544
547
546
544
545
547
544
540
539
538
532
528
527
525
519
515
516
515
511
507
508
505
501
500
504
503
500
499
501
501
500
503
505
503
503
507
508
504
502
504
504
500
498
502
501
497
498
501
500
498
500
502
499
497
498
500
498
497
499
500
498
497
499
498
495
494
496
494
491
491
494
491
488
489
492
490
489
492
494
492
491
496
498
496
495
497
497
495
495
497
495
493
493
494
491
489
491
490
487
483
485
485
481
479
481
479
476
473
475
472
470
471
476
475
474
475
479
477
477
478
479
476
475
480
480
477
476
479
478
477
478
480
478
476
476
477
473
466
460
457
467
497
535
557
557
539
512
491
482
479
480
477
473
473
476
475
474
476
479
477
476
480
484
484
484
488
489
487
487
491
492
490
490
493
493
492
494
495
493
491
495
498
496
495
499
499
497
497
502
503
501
500
503
502
501
501
502
499
495
495
496
492
488
489
490
488
487
490
490
488
489
492
491
489
489
493
493
492
495
498
497
495
499
501
498
498
502
504
502
501
504
505
504
504
507
505
503
503
507
506
505
508
511
508
506
508
509
507
506
510
510
508
508
513
514
513
515
518
518
518
521
524
523
522
524
526
525
524
526
525
522
520
524
525
524
523
526
525
522
521
522
520
518
520
521
518
517
519
520
517
515
517
517
514
515
520
518
510
503
503
507
526
552
572
572
557
532
514
503
499
500
502
500
500
506
508
508
511
516
517
517
520
524
523
522
524
525
523
522
527
530
528
528
532
534
531
531
534
533
530
530
534
534
535
540
545
545
547
551
553
553
551
553
553
550
547
548
546
541
539
541
538
533
531
532
528
526
527
529
528
527
529
529
526
525
528
527
525
524
525
522
520
520
525
524
524
526
530
528
527
529
533
532
531
535
538
539
541
547
551
553
557
563
564
564
567
572
574
575
579
583
583
584
589
591
589
588
591
592
591
592
595
592
589
591
596
595
593
594
596
594
592
594
595
592
591
594
594
591
589
592
591
587
585
587
586
583
582
581
572
563
561
568
583
606
628
635
624
600
580
569
562
561
567
566
565
566
568
567
566
567
569
566
563
564
564
561
560
564
565
563
562
565
563
561
560
563
561
559
558
561
559
558
561
563
562
559
561
561
557
557
560
560
557
555
556
553
550
548
548
541
535
532
530
525
521
520
517
513
511
511
508
503
500
502
501
499
499
502
500
499
499
502
499
498
501
503
500
499
503
504
500
497
500
497
492
491
493
490
487
487
490
488
485
486
487
484
482
485
487
484
482
488
490
488
488
492
490
488
488
492
490
489
493
498
497
496
500
503
503
500
502
504
503
503
508
509
508
510
514
514
513
515
519
519
518
518
516
507
500
503
517
539
562
579
577
559
530
515
508
503
503
507
506
504
505
509
508
507
510
514
513
510
513
514
514
515
518
518
516
516
520
519
516
516
519
516
513
514
518
516
515
516
517
514
513
515
516
514
515
518
517
515
516
517
514
512
512
514
508
504
505
506
503
502
504
506
503
501
504
504
501
499
503
503
501
501
502
499
498
501
505
503
498
499
500
498
496
499
500
498
499
502
501
500
501
505
503
501
503
507
505
504
506
508
506
506
510
513
511
512
518
520
518
518
521
521
520
523
527
525
524
526
528
526
523
525
526
524
523
527
528
525
524
527
526
522
522
525
522
518
515
512
507
509
530
558
578
585
581
559
529
514
513
514
512
511
514
514
514
516
519
518
515
516
517
514
512
514
515
513
512
515
515
513
513
516
516
516
519
524
524
523
525
529
528
527
527
527
525
525
529
530
527
525
528
527
524
521
522
518
513
512
513
508
504
505
506
504
502
504
505
502
502
507
511
511
513
518
518
518
521
526
526
525
527
530
528
528
531
535
534
534
536
537
536
536
539
538
537
538
543
543
541
542
545
544
543
544
546
545
544
546
547
544
540
542
541
540
541
546
546
543
543
546
543
540
540
542
539
537
538
539
536
535
538
539
537
535
537
535
532
530
525
516
509
518
547
578
599
606
593
560
533
524
521
517
513
515
513
510
509
512
511
509
509
511
510
509
510
514
512
511
512
513
508
506
507
506
504
502
505
504
501
502
506
505
505
506
509
507
506
508
511
509
509
513
515
514
513
515
513
508
504
505
501
496
494
494
491
489
490
492
490
489
492
494
492
491
494
495
493
492
494
493
489
489
492
490
487
486
487
485
484
486
489
488
488
491
492
490
489
493
493
490
489
491
490
488
489
492
491
488
490
493
492
490
490
492
490
489
492
494
492
491
495
494
492
493
496
494
490
489
491
489
488
491
492
491
491
494
494
491
489
492
492
489
488
491
489
487
486
491
491
491
492
494
493
490
488
482
471
469
491
526
558
577
579
559
523
503
499
495
491
490
491
489
488
490
492
490
489
492
493
490
488
490
490
490
490
492
491
489
492
496
495
494
496
500
499
498
500
501
498
497
500
501
499
499
504
505
505
506
511
512
511
512
514
511
509
510
511
508
507
509
509
508
507
510
509
507
506
510
510
508
510
515
515
515
518
521
521
520
523
526
525
524
527
528
527
528
533
533
531
530
533
531
528
530
533
532
530
532
533
531
530
531
530
527
526
529
530
527
526
528
526
523
524
527
525
522
523
526
525
524
525
526
523
521
522
522
519
518
521
521
518
517
520
518
514
514
516
514
512
513
515
514
514
517
519
517
516
518
518
515
514
517
516
514
514
515
513
511
512
514
510
508
510
511
507
506
509
508
506
507
512
512
510
511
514
511
508
508
510
507
505
506
507
504
502
504
505
503
502
506
504
501
496
492
484
485
509
549
581
595
592
571
538
520
516
514
508
505
505
506
505
505
509
508
507
508
512
510
509
511
514
514
514
516
518
517
517
520
521
520
518
520
518
515
514
518
517
514
514
518
517
515
517
519
517
516
519
522
521
521
525
525
522
519
520
519
514
511
513
510
507
507
510
507
504
506
510
508
508
510
511
510
510
514
515
514
514
518
518
516
517
521
521
519
520
523
521
521
523
525
523
524
528
529
528
527
530
530
528
529
533
531
529
530
532
530
528
530
532
530
528
531
531
527
526
529
529
527
527
531
532
532
535
539
539
538
540
544
541
539
540
540
537
536
540
540
537
537
541
540
537
536
539
536
534
534
535
533
531
531
533
531
529
530
530
527
524
525
524
521
523
527
527
526
526
528
524
522
523
524
522
519
521
523
520
518
520
520
516
514
515
512
503
496
494
503
531
568
595
598
581
549
527
514
508
505
501
496
492
494
493
492
493
497
496
493
493
494
493
492
492
493
489
486
488
490
488
487
490
492
491
492
495
496
495
497
504
505
505
507
511
510
509
510
513
512
512
516
520
519
518
521
519
516
515
519
517
515
516
519
517
514
515
517
514
512
515
517
516
515
518
519
517
518
522
524
524
526
530
530
529
531
535
535
533
534
536
533
531
533
534
531
530
533
534
533
534
537
536
534
536
540
539
537
538
539
537
535
537
538
536
535
538
538
535
534
537
537
536
537
539
537
534
535
537
534
532
532
533
530
528
529
530
527
526
529
528
525
522
524
521
518
518
521
519
518
519
519
517
516
520
521
519
517
519
519
516
516
520
519
516
516
518
517
516
518
520
516
513
514
515
512
511
515
517
515
514
517
517
515
514
518
517
515
513
510
500
493
502
532
567
594
606
596
564
533
524
519
513
508
506
503
499
499
502
501
500
502
507
506
504
506
509
508
506
510
512
510
510
514
514
512
511
514
513
509
509
511
509
507
508
510
506
503
505
505
503
503
505
505
503
504
509
510
510
512
516
515
511
509
510
508
506
507
509
507
505
508
508
506
506
511
511
510
512
517
518
517
520
525
525
524
526
530
529
529
532
533
532
531
533
533
532
530
533
532
529
530
532
530
527
528
530
529
529
531
533
531
530
533
533
531
530
532
531
527
524
524
522
521
521
524
521
519
522
524
523
521
523
523
521
519
521
520
517
515
517
515
513
513
516
514
512
513
517
516
515
517
520
518
517
521
523
522
521
524
523
521
522
526
526
526
528
530
529
527
527
527
525
524
526
526
522
521
524
524
523
525
532
537
540
545
552
552
549
547
544
544
562
599
640
662
665
652
621
599
592
593
589
581
578
579
579
578
581
584
583
582
584
586
584
582
585
586
583
581
584
585
583
582
584
583
580
578
580
577
575
574
575
572
570
570
569
564
560
563
562
558
555
556
554
550
548
550
548
544
543
544
541
540
540
540
536
533
534
534
531
528
530
530
527
526
530
528
524
524
526
523
522
524
527
527
528
531
534
532
530
532
532
528
528
530
529
526
525
527
526
523
523
525
522
521
522
524
520
518
519
519
516
515
518
516
513
511
515
513
511
511
514
510
507
509
513
513
512
515
518
516
516
520
522
520
519
522
522
520
521
524
524
523
524
526
524
523
523
523
520
516
516
518
517
517
520
519
517
516
518
516
512
513
515
512
510
511
513
509
505
505
506
503
501
504
504
500
494
490
486
494
524
560
578
576
558
530
510
504
503
504
498
492
494
496
494
493
496
495
492
491
493
491
489
489
491
489
487
489
492
489
487
490
492
492
493
496
497
495
494
498
499
498
499
503
503
501
503
507
507
506
508
510
509
507
509
510
506
504
504
502
500
500
503
501
501
502
504
501
499
500
502
501
501
503
504
502
501
504
504
502
502
506
506
504
504
506
505
503
503
504
501
499
500
502
500
500
504
505
501
498
501
502
499
500
503
503
501
502
504
502
501
503
505
504
504
506
508
505
503
505
505
503
503
505
504
502
502
505
503
501
502
504
500
496
495
495
492
489
489
489
488
489
494
496
494
494
496
494
491
491
495
493
491
492
494
491
488
490
491
489
488
491
492
491
489
488
480
471
477
503
537
562
571
561
529
500
491
489
485
482
481
479
477
477
481
482
481
481
484
482
479
479
482
481
480
482
484
481
480
482
483
482
480
482
482
480
480
483
482
480
480
483
481
479
481
483
481
481
484
486
485
485
490
494
493
493
497
497
495
495
499
497
496
498
500
498
496
498
501
499
499
503
506
503
502
506
507
505
505
510
511
510
510
513
511
509
510
512
510
509
512
515
513
512
515
516
511
509
511
511
509
510
515
517
517
520
523
521
521
523
527
528
530
535
539
538
539
544
545
544
544
548
548
547
549
553
552
551
552
555
554
553
555
559
559
560
565
567
566
565
569
569
567
569
572
571
568
568
572
572
571
571
572
569
566
565
564
559
556
558
556
551
548
549
547
544
544
546
544
543
545
547
544
537
530
524
527
549
588
620
634
627
604
571
554
547
546
540
533
532
534
532
531
535
539
539
539
542
543
540
539
542
542
541
542
548
549
549
550
554
554
553
555
558
557
555
558
560
558
557
559
560
558
558
562
564
562
563
568
568
568
569
572
570
568
568
569
564
561
562
562
560
559
561
561
558
556
559
557
554
553
556
554
552
552
555
552
548
548
548
544
542
543
542
538
537
539
538
534
533
536
534
531
531
532
529
526
528
530
527
524
525
524
521
519
522
523
520
519
521
518
515
514
515
512
509
509
510
506
502
502
502
499
497
500
500
497
496
499
497
494
492
494
492
491
491
493
491
489
491
493
489
486
487
489
487
487
492
494
492
492
495
495
492
491
492
489
486
486
487
485
482
484
486
485
484
488
489
486
485
489
487
479
471
468
471
494
533
568
578
567
539
509
494
488
487
483
478
474
475
474
473
473
478
478
477
477
479
479
478
480
483
481
481
484
487
487
486
489
491
489
489
492
491
489
488
492
492
489
488
489
486
484
485
486
484
483
485
486
484
483
485
484
481
479
481
479
478
478
481
479
478
480
482
480
478
480
482
481
482
487
490
489
490
494
495
493
495
499
497
496
497
501
499
498
501
504
502
501
504
506
503
501
504
503
502
502
505
504
502
504
508
508
505
507
511
510
510
513
515
513
512
516
517
515
514
517
516
514
514
517
515
514
515
519
518
517
519
521
521
520
522
523
521
520
523
523
521
521
524
523
522
525
530
530
529
531
534
534
534
537
539
539
540
545
548
548
548
552
553
553
556
562
563
562
565
567
562
553
546
547
565
600
638
657
650
623
592
575
567
564
564
559
555
553
555
553
551
553
557
555
553
555
555
553
553
556
556
555
553
555
553
551
550
552
548
545
545
547
545
543
544
544
539
536
536
535
531
529
530
527
523
522
525
524
522
522
524
521
518
518
518
515
513
516
518
517
516
518
518
516
516
520
520
518
518
520
520
517
518
522
521
520
522
523
520
519
522
522
520
520
521
521
520
520
523
521
517
518
521
519
516
517
520
517
514
516
517
514
512
514
513
509
508
509
507
502
501
503
500
496
494
494
491
489
490
492
491
491
495
497
495
494
496
496
494
495
500
499
497
499
502
500
497
497
498
497
497
498
498
496
497
501
502
500
498
501
501
500
500
500
492
483
483
499
529
559
577
573
546
514
503
501
495
493
493
490
486
486
490
491
489
491
494
491
488
488
489
486
484
486
489
487
485
