299
302
301
302
302
303
301
296
298
299
300
299
299
302
301
302
301
305
302
302
302
304
304
305
303
305
302
302
299
302
302
290
336
385
307
296
294
297
299
300
299
302
306
306
306
311
314
313
311
313
315
315
314
316
318
317
317
314
317
315
314
313
315
314
313
313
315
314
311
305
308
307
303
294
300
387
338
290
289
288
286
284
288
289
289
289
292
295
296
296
296
296
295
295
295
300
301
300
301
305
303
304
303
307
306
305
304
307
308
308
304
306
303
303
301
301
288
341
390
305
295
294
292
296
299
299
299
302
306
309
308
312
314
312
311
310
314
314
314
315
316
314
314
311
314
314
313
311
313
310
309
306
308
304
303
299
300
298
297
283
311
396
320
291
291
291
292
291
294
295
297
299
302
307
310
310
309
310
310
311
312
317
315
317
316
320
318
318
317
322
319
320
319
320
319
320
318
323
319
317
313
316
316
313
300
377
374
308
301
304
308
309
309
312
316
318
318
320
326
327
327
323
324
322
322
320
324
321
321
319
322
320
320
316
320
320
318
315
320
318
315
310
313
313
313
309
303
327
400
326
306
307
306
306
308
308
309
308
311
315
315
316
314
315
313
311
311
314
314
313
312
315
313
311
308
312
309
309
307
310
310
308
305
304
302
301
299
302
300
288
351
373
298
293
290
291
294
294
294
296
299
301
303
305
312
310
307
305
307
307
308
306
309
309
308
308
311
309
311
308
313
313
312
312
317
315
313
311
312
311
309
297
325
408
328
303
304
306
304
304
304
306
307
307
308
311
310
311
308
310
307
308
307
310
310
310
308
310
309
305
304
306
303
300
296
297
296
294
288
289
287
286
285
283
278
364
349
286
282
284
285
286
289
290
291
294
299
300
303
305
309
306
305
304
309
309
310
308
311
309
309
309
312
311
310
307
308
307
307
305
306
305
305
302
305
306
293
322
396
321
300
296
298
301
302
303
304
308
308
310
313
315
316
315
311
313
310
310
307
306
301
298
293
293
289
288
282
281
277
274
270
269
264
259
254
251
246
239
221
269
310
231
220
219
222
223
220
221
226
228
232
234
242
246
248
248
255
258
264
269
278
281
288
289
290
286
282
274
267
253
240
230
227
227
223
211
210
206
207
209
212
209
291
315
256
267
281
294
310
325
335
346
358
371
380
390
395
404
405
408
409
414
417
418
417
422
421
420
419
422
421
420
418
416
412
411
408
406
405
401
400
397
397
381
447
477
390
379
376
373
375
372
370
366
367
363
362
360
363
357
352
346
347
343
341
337
338
334
333
327
328
324
321
315
318
316
314
313
316
317
314
310
311
310
308
304
295
380
370
300
296
297
295
293
290
291
288
288
286
289
289
289
284
285
282
282
280
283
283
281
280
282
279
276
273
274
271
268
261
259
256
255
247
247
247
246
245
246
239
289
330
258
251
249
248
251
256
257
259
259
266
266
266
263
262
256
253
252
257
258
259
260
263
264
268
271
282
291
296
301
305
308
306
303
302
305
306
305
307
300
325
391
321
306
306
308
312
318
320
323
326
333
338
343
345
351
349
349
349
353
353
356
353
354
351
347
347
350
353
354
356
360
364
366
366
367
368
369
367
368
369
357
422
438
367
361
359
358
359
358
357
354
356
355
356
354
358
353
350
347
348
346
345
342
345
342
342
338
340
339
336
332
333
332
329
326
328
326
324
320
318
319
312
305
390
352
303
300
299
301
299
297
296
300
298
298
297
301
299
296
290
292
289
289
285
285
284
284
281
283
282
282
278
282
282
281
280
282
280
280
278
279
281
276
271
349
318
275
274
273
276
275
275
276
279
279
280
280
288
287
285
281
282
280
277
276
278
277
278
274
279
279
278
276
280
280
281
280
282
283
283
284
286
288
282
354
335
292
291
292
294
298
299
301
304
309
311
313
315
320
317
315
313
317
317
316
313
318
317
318
316
319
320
320
320
322
322
326
323
323
324
323
322
322
312
365
397
322
319
317
317
318
320
319
320
320
324
325
327
327
331
327
324
322
325
325
323
321
322
322
320
316
320
319
317
315
315
317
316
311
311
312
310
307
305
298
374
358
298
296
295
293
292
293
291
291
292
297
297
297
299
302
300
300
298
303
303
301
301
305
304
305
303
306
308
307
307
310
312
313
308
311
310
309
308
309
300
380
368
306
306
305
305
305
308
308
308
309
313
314
313
313
317
313
311
308
312
311
311
310
313
312
314
311
314
313
313
310
312
314
314
311
311
312
311
309
310
300
347
383
311
304
301
299
298
299
299
297
297
300
299
299
297
300
297
294
291
294
292
291
290
294
293
293
289
293
292
292
289
292
292
292
288
289
289
290
288
288
281
335
350
288
285
282
284
284
289
289
289
291
298
299
300
301
305
302
300
298
305
305
306
303
310
310
309
308
312
312
311
308
313
315
314
312
315
317
318
316
313
321
402
350
314
316
317
316
316
321
320
320
321
326
327
328
326
330
325
322
322
327
327
325
324
328
328
328
324
329
328
329
326
329
329
329
327
328
330
328
325
324
315
364
405
327
317
316
313
313
317
316
315
315
321
320
320
319
323
318
313
311
314
311
312
309
312
313
310
307
311
310
309
305
310
309
310
308
308
307
306
304
304
307
295
316
391
322
298
294
295
296
294
292
291
297
295
295
294
297
296
292
289
289
286
286
280
284
281
280
279
283
283
283
280
282
281
279
276
276
277
274
272
273
274
271
258
278
350
282
259
257
261
262
262
260
267
265
267
270
277
277
278
273
272
267
266
263
268
267
266
265
267
269
269
268
272
274
274
274
278
283
282
281
283
288
286
286
275
345
346
288
285
292
292
294
297
303
306
308
310
319
321
323
321
325
323
325
324
329
331
329
327
331
332
332
332
335
336
333
333
335
338
338
334
334
335
337
334
334
327
357
418
343
331
328
329
328
332
331
332
332
338
339
341
340
344
341
337
334
336
335
334
332
335
334
335
331
334
334
334
332
333
333
331
330
330
336
333
331
331
334
334
325
325
414
364
321
315
318
314
312
308
312
311
309
310
315
315
315
308
310
308
308
305
306
307
305
300
303
304
301
300
300
302
301
297
296
298
294
292
292
293
291
288
287
292
289
277
331
365
290
282
280
282
284
283
282
287
288
289
288
293
295
291
284
279
276
272
265
262
258
256
253
254
257
258
256
257
260
261
262
261
268
270
271
271
274
274
275
275
282
272
318
356
296
289
290
291
300
303
305
307
314
318
321
323
328
331
329
324
327
330
330
329
332
335
333
333
335
338
337
336
336
338
337
338
334
341
337
335
330
334
330
328
313
339
401
327
302
302
300
299
295
299
300
299
298
305
308
307
304
305
303
302
300
300
304
301
299
300
302
302
301
301
305
303
301
298
303
300
301
300
305
302
300
300
304
302
297
291
379
355
298
295
298
301
301
300
305
307
308
309
312
318
318
316
315
318
317
315
313
320
318
316
316
320
317
317
315
318
319
316
315
317
316
315
313
317
315
313
308
312
312
309
295
346
391
313
300
303
303
302
300
302
303
302
302
304
308
307
305
301
300
297
294
289
290
284
279
272
268
260
253
248
248
244
242
238
241
240
239
241
245
247
247
247
251
256
245
293
335
273
265
267
272
280
283
284
290
299
302
307
312
320
320
319
319
324
325
327
327
332
335
335
335
340
341
341
339
345
345
343
342
347
349
346
343
346
348
346
343
331
391
411
338
334
334
333
330
331
333
330
329
332
338
339
338
337
339
335
333
329
334
332
331
329
335
334
334
332
335
335
333
331
334
333
331
329
326
325
322
316
314
316
300
330
396
320
298
294
293
295
293
292
290
296
296
298
299
304
303
299
295
298
297
297
294
298
299
300
295
298
301
300
299
302
304
303
302
305
309
308
305
307
308
307
307
307
298
338
396
316
304
301
300
299
304
304
303
302
309
309
308
309
312
310
306
305
307
307
305
303
304
306
304
300
304
304
303
301
301
300
297
296
297
299
296
293
293
294
290
281
280
360
306
272
269
274
273
272
270
275
275
277
279
286
286
288
283
285
283
283
281
286
288
287
286
289
292
291
290
292
295
296
293
298
304
301
299
300
304
303
303
292
358
369
306
300
306
305
307
305
313
313
315
313
320
321
321
318
319
318
316
315
318
318
316
315
318
320
318
315
316
317
314
310
309
311
307
302
299
302
300
297
295
288
346
368
294
291
289
289
287
293
293
293
293
299
302
306
306
309
310
308
306
312
314
312
312
314
317
317
315
318
322
323
322
324
327
329
328
330
334
332
331
331
335
327
338
418
358
324
321
317
322
320
319
317
320
322
323
324
328
329
327
324
325
325
326
323
326
329
327
326
327
329
326
324
325
329
325
323
321
324
322
320
317
319
317
313
309
303
323
389
315
297
293
292
288
292
290
290
287
290
293
293
292
293
291
288
283
284
285
282
279
279
282
280
280
281
284
282
282
280
286
284
283
285
288
289
286
284
290
287
287
279
292
364
314
285
289
292
293
292
298
300
300
299
305
309
309
308
307
308
306
305
307
312
311
310
311
316
312
314
313
318
314
314
314
317
316
316
314
316
313
312
310
312
307
306
383
346
304
301
300
303
304
304
302
305
307
308
308
311
314
312
307
307
307
305
306
304
309
310
309
310
314
314
312
313
316
317
314
312
316
316
317
314
316
316
313
311
314
302
366
385
313
308
305
304
305
309
308
305
309
314
312
312
314
314
311
308
307
309
308
307
307
311
311
311
309
316
315
314
312
318
317
317
314
318
319
319
317
318
317
316
314
314
313
304
386
363
309
305
302
305
308
307
304
306
310
310
311
312
315
311
307
305
308
306
306
305
309
307
306
304
308
307
304
302
306
304
300
298
301
303
302
297
297
300
297
294
295
285
326
364
293
289
284
283
284
289
287
285
286
292
293
295
294
298
293
292
288
292
293
291
290
293
293
292
289
294
292
293
292
295
295
296
295
295
297
296
295
296
300
288
320
372
309
295
294
295
300
300
300
299
306
307
307
306
313
312
309
305
308
308
307
306
312
310
309
308
308
311
308
306
310
311
308
308
309
313
308
306
307
309
309
306
294
354
380
306
300
302
302
300
300
304
304
304
304
311
312
313
311
315
311
309
308
313
314
313
310
313
313
313
312
316
316
317
314
317
321
318
318
318
319
316
312
313
315
302
357
391
316
304
304
304
308
306
307
306
313
313
315
315
320
320
317
313
317
318
318
314
320
319
319
317
320
320
320
317
318
321
319
316
319
323
320
317
319
322
320
320
311
328
407
341
311
313
313
312
311
315
313
313
313
316
317
318
313
317
312
310
304
309
308
306
302
302
304
303
300
304
306
302
300
301
303
300
296
294
296
293
289
289
287
290
362
308
285
283
283
281
287
284
283
283
291
293
294
294
299
298
294
291
294
297
295
292
297
300
297
297
300
305
303
301
303
309
306
304
303
309
305
304
302
306
294
356
358
304
297
296
295
301
302
302
300
306
308
311
311
315
316
313
310
313
315
313
311
315
317
314
313
312
316
314
312
312
317
316
315
316
318
314
314
312
317
317
304
355
399
321
311
308
312
312
312
310
316
316
317
318
322
324
325
320
320
321
319
315
318
320
318
316
316
320
317
315
314
317
314
310
311
313
310
303
300
302
298
295
290
290
369
358
293
295
296
294
293
299
299
298
298
304
307
308
306
308
307
304
302
304
308
306
305
307
310
307
306
306
311
310
307
306
312
309
309
308
310
310
307
305
309
303
298
376
340
297
294
292
296
296
296
293
298
300
300
298
303
305
301
296
296
298
295
294
296
300
300
299
299
304
303
301
299
303
301
301
299
303
300
297
296
300
298
285
319
372
305
288
286
295
293
293
292
297
299
298
298
302
304
303
299
300
302
301
298
300
304
303
300
302
306
304
303
302
307
304
304
303
307
305
303
300
307
304
302
288
363
363
295
288
290
290
288
286
289
291
291
290
293
298
298
296
295
295
295
293
295
298
296
293
295
298
297
297
297
301
302
301
301
306
307
303
303
307
309
308
307
300
349
399
317
309
309
307
305
311
312
313
311
317
322
323
323
324
326
324
320
322
326
324
321
322
325
323
321
321
326
325
324
321
326
325
325
322
324
323
320
319
323
321
307
342
404
326
308
303
306
305
305
301
304
308
307
307
308
313
310
306
301
303
298
294
292
295
292
289
286
289
288
284
281
285
280
278
276
278
276
272
266
268
266
260
249
236
302
291
234
233
233
233
232
236
239
241
241
244
251
252
254
254
257
255
254
256
263
262
263
264
273
275
277
279
286
286
287
287
292
294
290
286
291
291
290
285
278
320
356
285
276
279
279
277
283
288
289
291
298
305
308
313
313
318
318
316
319
324
326
327
328
337
337
339
339
347
347
347
346
352
353
351
348
352
352
348
344
337
353
426
358
329
331
326
324
325
327
325
325
329
335
334
334
333
336
331
328
326
331
328
326
323
326
322
321
317
321
320
317
313
317
316
313
308
308
307
305
303
305
295
339
391
313
303
300
299
300
304
304
302
305
309
309
308
310
312
306
301
298
303
299
298
294
299
298
294
293
298
296
294
290
290
288
284
281
281
279
274
271
273
272
257
291
337
271
256
255
256
263
261
261
265
272
274
278
283
290
286
281
279
282
283
282
283
289
291
288
288
294
295
297
296
303
305
305
306
309
310
309
308
311
316
303
331
390
328
312
312
315
321
321
320
323
330
331
333
334
341
340
336
333
338
336
334
333
337
336
336
334
338
338
335
333
336
338
336
333
337
336
332
328
331
331
320
333
406
348
320
315
316
319
318
315
314
320
317
316
317
322
321
318
313
319
316
314
311
316
312
311
308
311
310
307
304
306
306
302
297
299
298
293
289
290
292
287
280
364
337
280
275
275
278
276
273
273
280
279
278
278
284
283
281
279
282
279
278
278
285
285
284
284
289
291
289
289
295
298
297
295
300
305
302
298
303
305
304
297
290
370
352
291
290
293
288
287
286
288
286
285
284
292
288
284
279
278
273
267
261
263
259
256
254
256
258
256
254
259
258
254
251
257
259
255
253
257
260
255
240
274
317
257
241
242
249
247
249
250
258
261
263
267
275
278
275
269
274
271
271
269
280
280
279
277
284
284
282
281
287
289
290
286
287
291
287
285
285
283
301
356
305
288
287
287
288
293
291
292
296
304
306
306
305
302
293
281
274
276
273
272
269
274
272
272
270
271
267
262
261
266
264
264
264
271
275
274
271
350
341
296
298
307
317
319
323
329
338
341
342
349
358
358
359
358
364
363
363
361
365
363
361
359
364
364
360
360
364
368
362
358
360
360
357
354
348
377
428
362
345
347
343
338
338
342
338
336
337
341
339
337
336
337
332
328
326
330
327
323
322
326
324
322
317
323
322
321
315
318
316
312
309
312
304
322
388
327
307
304
301
304
307
304
305
306
308
307
305
308
311
306
301
300
305
304
302
301
306
303
302
302
308
306
305
304
307
304
303
298
304
303
290
303
386
320
290
285
287
289
285
282
284
287
286
283
288
292
290
286
279
282
280
278
279
285
284
283
284
291
290
289
288
296
298
296
294
299
297
296
296
300
290
322
386
315
298
295
294
298
300
299
299
304
308
306
304
307
312
309
303
305
310
307
305
306
310
310
308
307
312
311
308
309
314
312
310
308
313
312
309
308
305
321
385
322
307
307
305
305
309
310
307
305
307
311
308
305
307
307
304
300
301
305
302
301
303
308
305
302
302
308
306
305
305
311
308
305
303
311
308
302
297
378
341
299
296
301
303
300
297
302
302
301
298
303
306
302
297
297
302
297
295
295
301
299
297
297
302
298
294
297
302
301
299
295
299
296
295
293
295
294
369
329
296
294
291
290
295
296
295
294
298
301
300
297
301
303
300
297
300
304
302
300
302
307
305
303
303
309
306
307
307
310
307
306
306
311
307
300
384
352
306
303
303
309
309
307
307
311
314
315
313
319
321
316
311
317
316
314
309
314
316
313
310
313
318
314
311
316
319
315
312
313
319
318
304
336
410
328
308
308
313
312
309
307
315
313
309
308
315
313
310
305
308
306
306
302
305
306
304
301
305
309
305
302
305
310
306
300
302
305
303
301
290
319
393
317
295
299
295
293
292
298
296
294
294
300
298
296
294
300
297
293
293
299
299
297
295
298
301
297
294
298
300
298
297
300
301
298
297
299
303
289
319
371
308
293
291
291
297
296
294
294
298
298
297
298
303
301
298
294
299
299
296
294
300
301
299
295
300
302
298
297
302
305
301
298
301
306
305
300
294
370
344
300
298
303
300
300
301
307
304
302
304
308
308
306
302
306
303
301
300
304
305
303
301
305
304
302
301
305
304
301
301
303
306
301
300
302
304
289
344
373
306
297
293
296
300
297
295
295
301
298
297
298
304
301
296
294
300
300
296
295
301
301
298
299
305
304
303
300
305
307
304
300
302
305
301
301
302
293
351
374
303
300
295
294
297
302
299
297
298
305
305
303
305
309
305
302
300
306
305
305
303
308
306
305
302
308
307
304
302
305
307
303
300
304
307
303
299
293
317
394
320
297
298
295
295
296
302
300
296
297
303
302
299
300
303
300
297
295
303
301
300
299
305
305
302
301
306
306
304
302
309
311
308
306
309
313
309
306
300
335
399
317
306
307
306
304
306
310
309
303
307
313
312
309
308
311
307
305
302
309
307
305
302
308
306
303
301
307
307
303
300
304
306
305
301
306
307
305
304
304
316
387
328
307
311
308
306
309
310
305
303
303
308
306
302
301
304
298
295
294
300
297
295
291
299
297
295
294
300
298
294
295
299
302
298
295
298
302
297
295
289
348
363
294
293
296
295
290
294
299
301
301
305
312
311
310
309
313
309
307
305
310
308
306
304
310
308
305
305
311
308
304
306
312
311
311
307
311
313
309
306
302
320
393
327
305
305
301
302
304
307
307
303
308
313
312
310
310
315
308
305
307
312
309
306
306
310
308
305
305
311
311
310
308
314
313
310
309
311
310
306
303
306
305
296
377
349
302
296
294
297
300
297
295
298
302
302
300
303
307
303
298
298
306
302
301
300
306
306
304
304
308
306
305
301
307
305
301
299
305
304
299
294
297
299
295
289
288
375
332
283
286
290
286
284
287
290
286
286
289
294
292
288
289
289
286
286
284
291
289
287
286
291
288
285
284
292
290
287
286
290
290
290
286
292
292
288
287
288
288
357
323
289
289
286
283
286
290
287
286
288
295
293
293
294
298
292
290
290
296
294
292
294
301
300
297
298
304
304
301
300
307
306
306
304
309
310
306
305
311
303
340
383
320
311
309
307
310
315
313
309
312
318
315
314
316
320
315
312
312
318
316
313
313
319
316
313
312
317
314
310
308
312
311
306
306
312
310
305
302
307
307
303
289
365
363
297
292
295
298
294
292
295
299
298
297
301
308
306
302
301
305
303
302
299
306
304
299
299
304
303
301
299
306
303
303
299
307
307
304
302
308
308
303
302
307
310
306
291
345
387
311
296
298
301
295
293
295
299
296
294
297
302
300
296
295
299
295
292
295
300
300
298
298
306
304
302
300
307
307
304
303
308
307
305
303
309
310
308
303
307
309
306
302
306
298
364
366
300
302
297
295
298
301
299
296
298
304
303
299
300
304
301
295
296
301
300
297
294
300
299
296
293
299
299
296
294
298
299
295
293
298
299
295
294
296
299
296
293
298
292
303
367
312
294
292
289
292
298
296
291
292
299
296
298
297
301
297
293
292
298
297
294
293
301
300
299
297
303
303
301
299
304
304
302
300
306
310
305
299
302
307
304
299
290
352
361
296
292
296
293
289
292
295
293
291
292
301
298
295
294
298
293
290
288
294
293
291
290
297
296
293
290
296
299
297
293
297
297
293
290
295
296
292
287
291
297
293
280
326
377
301
286
285
290
286
284
284
290
290
290
290
298
298
296
294
300
297
296
293
299
299
296
293
299
300
297
295
302
305
301
299
301
304
304
301
305
306
302
299
298
302
299
285
318
385
309
289
286
296
293
291
292
299
301
300
303
311
312
312
309
314
314
312
309
315
317
314
313
318
321
319
317
321
325
321
318
323
325
322
319
323
328
320
316
319
322
318
310
314
397
336
300
299
305
304
300
301
306
306
303
302
308
308
304
299
304
305
301
299
304
307
303
299
304
305
300
296
301
306
302
298
302
307
304
303
303
305
303
298
299
301
290
352
339
297
291
288
289
296
297
294
293
301
301
297
297
304
303
296
294
299
299
296
292
299
302
298
295
299
302
298
295
299
302
298
295
298
304
298
295
296
301
298
290
296
379
328
291
288
295
294
290
290
295
293
293
292
300
302
299
295
300
301
296
294
299
302
298
297
301
304
300
298
299
303
298
295
295
301
297
293
293
298
294
291
291
298
281
328
369
301
290
287
285
294
293
291
289
296
298
296
296
302
306
300
296
303
305
302
302
307
309
305
304
306
310
308
305
309
314
309
308
308
315
312
309
309
315
311
308
308
309
309
389
344
307
305
302
300
308
306
304
302
310
312
309
308
313
313
307
303
309
310
306
302
307
310
305
303
305
308
304
301
300
304
300
295
298
304
303
300
298
304
301
298
298
296
306
378
318
296
293
290
289
295
294
292
289
294
296
294
293
299
298
292
289
293
297
291
288
292
296
292
288
291
296
291
289
290
295
293
291
290
298
295
292
290
297
295
291
277
330
356
291
281
288
289
286
283
292
295
292
291
298
302
299
295
297
296
291
291
295
297
294
292
296
300
298
293
294
302
298
296
297
304
302
302
299
304
303
298
296
304
291
337
366
303
295
289
288
293
293
289
286
294
295
294
292
299
299
293
289
292
297
293
289
290
295
290
287
289
295
292
288
288
295
291
288
289
296
297
292
290
298
296
292
287
294
376
332
288
292
293
289
283
289
289
286
285
292
296
294
291
294
298
294
293
295
301
298
296
298
307
304
300
302
307
307
304
304
312
311
310
310
319
317
314
313
322
321
310
329
412
344
315
311
317
317
315
311
316
319
317
313
320
322
317
311
314
317
313
309
313
316
312
308
309
314
312
307
308
314
310
307
304
308
306
303
300
303
300
295
290
295
283
294
356
302
281
279
274
279
283
278
274
281
283
279
280
283
287
281
277
279
284
282
279
282
289
289
287
286
293
291
289
289
297
295
292
293
301
303
297
296
301
301
297
289
296
370
330
290
294
297
294
292
298
301
299
297
302
308
305
302
304
308
301
298
299
306
302
300
301
308
304
301
302
310
306
303
301
309
308
304
303
309
307
300
296
302
300
290
296
376
324
288
283
286
288
283
277
280
286
281
279
283
290
287
282
280
283
280
276
276
283
280
279
278
289
286
285
286
294
293
291
289
299
298
296
297
303
303
301
300
305
306
293
350
384
313
301
299
305
310
306
304
306
313
310
310
312
319
314
309
309
312
310
307
307
316
312
307
309
315
313
310
308
315
315
310
306
310
309
306
304
310
309
306
304
308
312
299
315
390
328
303
301
306
311
307
303
306
311
307
304
306
313
309
304
301
308
305
302
302
307
306
300
300
307
305
302
298
304
302
297
297
301
301
297
293
299
299
294
291
295
296
282
345
334
292
284
281
282
290
286
283
285
291
289
288
289
296
292
286
284
293
291
286
286
292
292
287
285
293
292
289
284
291
292
286
282
290
293
290
286
289
291
288
284
282
290
361
314
282
285
282
278
281
288
285
283
287
295
293
291
291
298
292
287
286
292
292
288
285
290
288
283
279
286
286
282
277
283
284
281
279
282
287
282
278
281
285
282
275
273
356
331
276
277
285
281
281
281
292
291
290
293
301
302
302
301
307
306
303
303
311
311
306
305
309
312
309
308
313
317
313
310
313
315
310
304
309
311
306
303
304
309
300
296
381
344
294
290
290
298
295
292
293
297
296
294
295
305
304
299
296
300
299
297
293
299
300
297
294
299
302
298
295
298
301
297
293
295
298
294
293
293
298
293
289
289
291
284
353
318
287
282
278
277
286
283
280
278
285
286
283
282
291
289
283
280
288
290
287
283
290
294
289
286
290
294
292
289
293
299
294
294
299
302
296
294
296
301
297
282
335
364
300
288
289
298
298
294
294
301
301
299
299
307
308
303
298
304
304
302
299
304
306
301
299
304
309
305
301
304
310
305
302
305
311
308
301
303
308
304
296
296
288
348
350
283
287
284
278
276
284
282
279
279
288
289
288
287
296
294
289
288
293
296
292
288
294
296
293
290
295
302
300
296
299
305
304
301
304
310
306
303
304
311
308
299
300
392
351
302
300
311
308
306
305
313
313
311
311
320
321
318
315
318
319
314
312
318
320
317
314
319
322
319
315
317
322
318
315
316
323
319
316
316
321
316
310
311
315
306
310
385
338
303
296
294
301
300
295
292
298
299
295
291
296
295
289
280
282
283
276
271
274
277
272
268
269
274
271
266
266
271
266
260
260
267
260
256
253
261
258
252
242
265
331
272
247
257
259
256
257
264
268
267
267
276
282
281
279
285
288
283
282
288
294
290
288
291
298
294
291
294
300
294
290
290
297
294
292
289
298
294
291
289
294
283
316
371
305
292
288
288
297
300
296
296
305
309
307
307
313
318
313
307
313
316
312
308
314
316
312
309
309
316
314
311
311
318
316
311
310
318
314
308
304
311
309
301
298
293
326
385
306
296
297
293
291
297
298
294
292
301
306
304
303
308
311
306
303
309
313
310
305
308
317
314
311
314
322
318
314
315
322
319
314
313
322
321
315
313
320
320
314
309
306
378
369
301
305
307
301
299
304
306
301
297
301
306
303
299
301
302
295
290
289
296
291
287
287
293
289
283
283
290
284
277
274
281
279
273
273
276
275
269
266
272
270
253
302
325
265
254
249
257
260
257
255
262
269
266
266
272
279
275
269
272
278
277
274
276
285
283
281
283
292
290
288
287
295
297
292
291
302
298
294
291
300
300
293
281
309
378
305
280
284
286
282
277
282
286
283
281
288
299
295
292
295
301
298
295
298
308
305
302
302
312
309
305
305
313
311
307
306
317
318
313
310
318
321
316
313
320
311
357
397
325
322
316
313
317
323
318
310
314
321
317
314
316
321
314
305
303
310
306
300
298
307
303
298
296
304
302
298
295
304
301
297
292
303
302
295
293
298
299
292
278
321
382
303
283
286
292
287
282
286
293
288
285
288
293
291
288
286
291
288
283
283
292
290
286
283
290
289
284
281
289
287
283
281
287
288
284
278
282
284
279
274
279
269
317
331
272
269
262
260
261
268
264
260
262
272
269
267
268
274
270
265
265
274
272
270
270
280
280
276
273
284
285
282
280
288
290
288
286
291
294
289
289
294
294
288
365
331
295
290
285
289
298
295
293
294
302
300
300
299
310
306
300
298
307
306
302
301
310
310
306
303
312
313
309
306
314
316
312
310
316
317
311
304
310
313
306
291
330
394
311
293
292
298
294
289
291
299
295
291
292
300
298
294
291
297
293
288
287
296
294
289
287
295
296
292
289
295
298
293
291
297
302
298
295
299
305
301
295
299
300
296
376
333
297
290
287
288
295
290
285
286
295
292
288
287
295
291
283
278
286
284
279
276
286
286
281
278
283
287
280
276
281
283
277
273
279
282
275
272
274
279
270
255
310
334
267
258
259
269
266
262
263
274
272
272
272
284
282
279
275
285
285
280
280
287
289
285
283
290
293
287
286
293
296
290
290
295
303
296
292
296
303
298
289
286
374
338
288
287
293
291
288
289
297
297
292
294
304
302
298
296
302
300
295
291
299
303
300
297
304
307
300
298
302
307
301
296
301
306
304
296
299
304
300
298
300
295
361
365
294
294
289
283
282
290
290
283
285
292
293
290
288
298
294
289
285
293
296
289
289
294
298
294
291
297
301
297
291
297
302
299
296
298
302
296
292
293
302
290
293
378
332
292
286
286
296
293
289
288
297
295
291
288
297
298
290
285
290
291
286
283
290
293
288
283
289
294
288
283
287
293
286
281
285
291
288
280
278
283
275
269
264
267
338
298
257
263
259
255
251
261
260
256
254
264
265
262
260
266
265
257
255
261
266
261
257
263
270
266
262
268
274
270
267
270
277
276
274
275
285
282
279
280
292
277
314
366
307
294
289
290
300
301
297
297
306
310
309
306
315
318
311
307
313
316
312
308
314
320
315
311
316
323
318
315
315
322
318
315
318
326
321
315
314
323
319
314
303
333
408
331
301
309
306
300
297
303
304
299
296
304
307
303
298
301
303
296
292
297
302
295
292
297
302
296
292
295
300
297
291
290
298
295
289
290
296
290
285
282
292
288
271
332
365
291
277
274
282
286
282
279
287
292
286
284
292
296
290
284
288
292
289
283
286
293
288
283
284
294
291
285
286
294
292
286
286
293
292
284
281
290
288
280
275
271
340
326
267
271
270
265
262
269
272
268
267
274
280
279
276
278
280
272
267
268
277
273
268
269
277
273
269
272
281
279
272
272
282
284
276
276
285
283
280
277
276
331
346
282
282
283
279
277
283
288
285
282
289
300
294
292
295
299
289
286
286
294
289
285
289
295
294
291
291
303
302
296
297
308
308
303
302
309
310
303
300
303
307
380
338
306
308
304
300
309
313
309
307
313
322
319
316
324
329
321
315
318
328
322
316
315
324
319
312
312
318
314
309
306
313
312
306
304
312
310
304
301
310
308
294
370
357
303
295
295
302
307
301
298
305
312
309
307
311
320
315
307
308
315
311
306
307
315
310
303
304
313
310
304
304
313
311
305
306
316
318
311
309
316
316
309
305
300
332
392
315
299
303
296
290
293
298
293
288
293
300
295
293
294
299
290
282
282
289
284
277
276
283
281
274
273
283
278
273
270
280
281
273
272
279
279
274
268
274
273
259
325
314
271
264
260
265
274
271
269
274
286
283
282
287
297
292
287
288
298
298
295
295
306
305
300
300
309
309
305
302
312
313
305
306
315
315
309
304
310
314
305
291
317
391
319
294
296
304
300
296
299
307
302
299
304
314
311
307
307
314
309
304
304
315
312
307
306
316
315
310
308
318
318
312
309
320
320
314
311
316
318
311
306
313
314
306
383
349
310
300
297
300
307
299
295
295
305
300
294
295
304
298
290
290
299
295
290
289
297
297
289
286
295
294
287
283
293
292
286
281
289
292
282
278
284
290
285
276
281
375
331
280
282
290
289
283
286
294
289
285
284
296
292
284
279
280
271
260
251
256
250
241
239
246
247
240
239
247
248
244
241
248
257
255
253
263
270
270
266
275
275
324
343
289
292
290
288
293
302
300
298
301
314
313
308
309
319
315
309
306
319
319
313
310
318
318
311
308
316
316
310
302
307
308
300
291
295
299
292
287
289
290
348
336
291
298
292
292
296
306
304
300
304
316
314
312
312
322
317
310
308
318
319
313
311
320
320
313
310
320
320
314
311
315
317
309
296
298
295
283
271
268
258
317
298
253
259
252
246
253
264
264
263
267
282
284
281
284
295
287
278
274
282
279
275
272
283
284
280
280
290
293
289
288
297
301
298
295
304
309
305
300
306
312
297
304
385
332
298
292
294
303
299
296
298
309
306
303
307
319
317
312
309
317
317
311
306
314
312
304
298
305
305
298
292
296
295
286
277
282
284
272
264
264
267
257
249
239
293
328
244
236
242
236
232
233
242
240
234
236
250
250
245
245
255
250
244
240
248
247
237
234
240
243
236
236
245
249
242
238
244
251
245
242
243
249
244
241
246
252
237
295
306
256
245
238
237
246
241
236
237
251
250
249
252
265
265
256
252
261
265
261
258
268
270
264
262
271
277
270
264
269
274
269
266
274
279
273
270
276
286
278
269
341
329
283
276
282
293
293
289
293
307
307
306
309
323
325
318
317
328
329
326
324
335
339
331
330
338
342
336
330
336
340
330
324
329
331
321
314
314
320
308
293
361
356
297
284
284
293
290
285
284
298
297
294
297
312
311
304
300
309
308
301
297
305
308
300
297
307
312
306
302
310
315
310
307
317
322
316
312
316
324
318
300
341
402
325
307
308
320
317
311
310
320
318
314
315
327
328
321
317
326
325
319
315
325
325
318
313
321
322
316
308
315
319
311
306
311
319
309
302
307
315
308
299
293
381
357
295
294
303
299
295
294
305
302
296
294
308
306
299
297
305
303
296
293
303
305
297
291
300
303
298
293
300
306
298
292
299
306
299
293
296
303
297
291
287
306
379
313
288
298
293
287
289
299
294
288
287
302
302
296
293
302
297
288
284
291
291
283
276
288
290
283
280
286
290
281
273
276
283
274
265
271
278
272
266
260
284
343
284
260
270
267
262
264
277
276
270
272
287
287
283
282
291
290
283
279
288
289
283
280
290
293
286
284
291
297
292
289
298
302
297
291
295
304
298
283
305
378
311
284
286
297
293
288
288
300
297
290
292
303
302
296
292
303
302
294
292
301
303
296
292
301
305
298
295
302
306
297
293
301
305
299
293
296
303
296
277
331
372
297
281
281
292
288
283
285
298
294
290
291
304
303
295
291
300
300
294
291
300
302
294
290
299
304
299
294
302
308
300
296
304
311
302
297
302
311
304
297
288
355
377
298
293
302
299
292
292
302
300
294
294
306
305
297
295
304
303
293
290
298
301
294
290
300
304
296
290
298
303
297
291
298
306
299
294
300
307
300
293
297
309
301
283
345
378
301
287
288
297
295
288
285
295
294
288
285
296
296
287
280
290
290
283
277
286
289
281
275
284
288
281
275
280
287
276
270
273
282
275
268
274
281
274
267
268
278
269
253
321
320
268
255
256
268
267
260
260
273
275
272
271
283
288
280
273
283
288
280
276
284
290
282
277
283
290
284
279
284
294
287
281
286
297
294
289
288
299
295
286
286
294
282
339
335
294
289
281
279
293
293
287
286
298
300
295
293
303
307
299
292
299
305
296
292
297
305
297
291
294
304
299
293
297
308
301
295
298
311
306
302
300
310
306
298
298
301
304
374
327
298
296
289
282
294
295
287
283
292
298
294
290
299
303
294
288
295
304
295
288
294
302
292
285
289
300
296
291
292
304
300
293
292
307
303
296
292
305
304
297
294
300
308
381
328
301
302
294
291
300
306
299
295
304
313
305
301
309
315
306
300
303
314
307
299
301
311
304
296
298
309
304
296
296
306
302
296
294
304
302
296
290
301
301
291
287
294
286
337
344
291
288
278
275
284
288
282
275
282
291
285
281
288
295
285
279
281
291
285
279
280
290
286
278
277
290
287
280
279
286
284
276
275
284
284
273
269
279
281
274
259
304
352
283
264
273
281
273
269
275
283
278
275
282
293
289
282
284
292
287
281
284
294
290
281
282
294
291
283
283
295
294
287
284
296
297
289
285
294
297
289
285
293
288
304
366
306
290
282
277
282
290
283
278
283
296
292
288
294
304
298
290
292
304
299
293
291
302
301
292
291
303
303
296
292
304
305
296
294
303
306
296
291
300
303
295
285
286
369
343
282
285
293
284
278
280
288
283
278
283
295
291
285
288
296
292
285
285
295
292
285
284
295
295
288
285
298
297
289
286
295
297
291
287
294
298
288
284
293
298
279
300
366
312
290
286
292
305
299
295
299
311
305
299
301
314
310
300
298
309
308
300
298
310
307
301
298
309
308
300
295
306
308
299
294
303
310
299
293
301
305
295
287
282
353
340
281
280
288
282
276
277
288
284
278
279
293
288
280
278
285
281
273
273
284
282
274
272
281
283
274
270
280
285
276
271
280
286
279
274
281
286
280
272
278
278
289
357
299
282
275
269
271
284
278
272
274
287
286
280
282
297
294
284
283
296
294
286
283
293
294
286
282
290
293
286
283
292
296
289
285
293
301
292
284
292
301
294
289
280
340
377
298
289
299
295
288
290
302
298
291
291
303
302
296
294
304
300
292
287
298
297
289
287
297
299
291
287
297
301
295
288
297
299
285
278
285
293
283
276
282
290
284
269
295
379
305
274
275
286
281
274
276
291
290
282
284
297
299
291
286
296
294
286
282
293
295
286
282
292
296
288
282
289
296
287
281
288
295
286
282
284
294
285
278
281
290
274
333
325
285
274
267
265
275
270
260
259
270
269
259
260
273
272
264
258
269
272
263
259
271
276
269
265
275
283
274
273
279
288
281
277
284
295
287
281
282
294
281
283
357
318
284
274
273
287
283
275
275
286
288
281
285
297
299
289
287
299
304
295
294
305
311
303
298
306
311
303
296
304
314
304
299
306
315
308
301
304
316
308
295
305
400
339
298
299
312
308
300
300
313
308
301
298
312
312
303
298
308
307
298
293
304
309
299
292
302
308
299
293
300
309
299
292
297
309
299
290
294
306
297
289
279
335
378
295
283
295
290
280
281
293
290
281
282
295
295
288
283
293
292
283
277
289
292
283
278
287
294
284
280
288
297
288
283
288
299
289
282
285
296
286
278
273
296
357
293
268
279
276
266
265
279
276
268
268
281
282
274
272
283
284
273
270
281
284
276
271
281
288
280
275
285
293
284
278
285
295
283
274
278
288
280
270
261
336
329
261
258
269
262
253
254
264
263
256
257
272
275
269
267
279
280
272
271
282
284
277
273
282
288
278
274
284
291
283
278
286
296
288
280
286
297
292
284
276
338
375
293
284
299
293
285
286
299
298
289
288
304
304
296
296
306
306
296
293
305
309
300
296
306
311
302
297
306
313
305
298
304
314
306
298
302
311
304
296
298
308
296
365
352
307
298
290
289
303
300
291
290
303
301
293
291
304
304
292
288
298
303
295
291
300
304
294
289
296
304
296
289
294
303
293
285
289
300
293
284
285
296
290
280
282
283
324
357
286
285
278
269
267
278
279
269
267
281
283
277
274
286
287
277
272
282
287
277
270
280
286
276
272
277
286
278
273
279
289
281
274
278
291
282
274
275
288
281
270
260
339
329
271
263
276
275
267
266
281
283
276
276
290
294
286
281
290
292
283
276
287
293
284
277
285
294
285
280
285
297
290
285
288
303
296
290
291
302
298
289
288
302
288
303
373
318
294
284
281
294
296
286
284
297
301
293
291
303
308
298
289
297
305
296
288
294
300
289
281
288
298
291
283
288
299
292
285
287
299
294
286
286
299
294
285
283
286
352
351
282
290
290
283
279
293
295
286
284
294
302
291
288
298
303
295
287
295
303
296
288
294
306
297
291
294
306
301
291
293
306
299
292
293
306
299
290
288
302
299
284
291
380
325
285
282
293
296
285
281
292
297
288
285
294
304
293
287
292
299
289
284
289
298
288
282
284
294
287
278
281
293
285
277
275
288
281
269
269
281
277
267
257
282
350
288
259
272
274
267
265
278
283
278
272
285
295
287
282
289
295
286
278
285
294
285
278
282
292
284
275
278
292
285
276
276
291
287
278
275
289
288
279
278
282
300
363
296
284
286
276
273
286
290
282
278
291
298
291
286
295
303
292
288
291
302
293
285
289
301
294
286
291
304
298
288
290
302
298
288
288
300
295
286
282
295
293
270
301
376
304
275
271
282
287
278
273
284
291
282
278
288
298
288
278
283
290
280
270
273
283
273
264
267
280
274
265
269
282
279
271
271
284
281
275
267
279
275
259
251
258
250
316
289
247
246
234
227
236
242
231
226
235
247
239
235
241
251
239
229
236
250
245
240
243
261
257
250
256
274
272
266
268
285
286
278
279
295
295
288
286
301
296
294
359
329
305
298
294
309
317
310
306
317
328
320
315
323
335
323
315
320
331
324
317
320
332
324
316
317
330
323
314
313
327
323
313
310
322
318
307
306
316
312
303
377
344
309
298
291
302
307
295
290
299
309
301
291
300
318
307
299
305
320
311
303
307
321
313
305
309
321
315
305
306
320
316
308
308
319
317
306
304
317
318
297
353
396
326
307
301
313
318
307
303
312
319
310
306
313
324
313
301
306
317
307
300
304
317
308
299
303
318
310
301
302
316
311
301
303
317
314
302
300
312
314
302
288
335
403
316
292
305
309
297
292
303
311
300
295
306
316
308
303
308
317
306
301
306
319
312
305
309
321
317
307
310
322
317
308
306
320
319
309
306
320
318
308
304
317
306
328
378
326
313
302
296
306
314
305
297
310
319
309
304
313
322
311
302
305
318
308
300
302
315
310
299
300
314
310
302
301
317
315
303
301
316
313
303
299
316
306
322
378
328
313
304
297
311
316
306
302
312
321
313
309
316
326
315
305
309
322
313
303
305
315
305
295
293
305
298
287
285
296
294
285
285
299
298
287
284
298
292
297
372
326
300
289
283
297
302
294
288
299
309
302
295
305
316
306
298
303
316
308
300
303
317
310
303
305
322
316
305
307
322
316
309
310
322
323
312
310
324
324
305
383
378
322
308
302
314
317
307
293
300
305
290
283
288
296
285
274
280
292
285
278
283
298
293
286
291
304
302
294
297
307
299
291
291
308
308
298
296
313
314
307
293
323
407
334
300
311
319
307
304
314
323
314
307
318
328
319
312
316
329
320
312
316
330
321
315
317
331
326
315
316
331
326
316
314
329
326
317
313
327
328
316
312
324
314
355
372
322
317
307
299
309
313
303
296
305
314
309
301
309
319
308
299
304
318
310
301
305
318
314
305
306
321
315
306
305
320
317
305
303
319
315
303
298
311
313
301
287
366
374
300
288
300
307
296
289
299
308
297
286
290
299
288
279
281
292
284
276
279
294
286
281
282
299
296
286
288
303
300
291
289
306
306
296
292
305
309
299
294
307
302
367
356
309
313
302
296
307
318
309
301
311
326
319
314
324
336
324
315
321
334
328
318
321
334
328
317
318
334
330
318
317
333
329
319
313
330
329
316
309
321
324
310
291
366
394
312
299
307
316
304
297
306
316
307
300
308
323
314
304
304
316
308
299
301
316
309
302
300
317
313
300
299
315
313
302
296
311
310
299
293
307
309
297
292
306
299
316
369
315
304
292
288
297
308
300
291
299
312
304
297
303
317
307
296
299
314
308
299
299
315
309
300
298
315
313
302
299
314
313
304
299
313
314
301
295
308
313
294
292
379
339
295
286
297
307
297
291
299
311
303
296
304
320
311
303
300
316
308
298
299
317
310
300
300
314
311
299
298
314
314
302
300
314
318
306
298
310
316
302
294
299
383
354
290
298
307
296
288
296
309
299
292
299
315
309
302
304
320
310
301
301
319
313
302
302
320
316
306
304
320
320
309
304
319
321
309
304
316
322
308
302
312
312
301
377
346
310
297
289
299
312
302
295
302
318
310
301
306
320
311
300
302
316
313
302
303
318
313
303
302
318
318
305
301
316
319
308
304
319
322
310
305
317
324
314
300
308
398
356
302
307
318
307
300
307
320
311
302
307
325
318
308
310
324
316
304
306
320
316
306
303
318
315
303
301
316
317
306
300
315
316
303
293
303
307
294
286
295
290
329
347
294
295
284
277
282
297
288
279
286
302
297
289
293
307
297
288
289
306
305
294
293
308
305
292
291
305
306
296
292
306
310
298
293
307
308
297
289
303
309
291
291
383
340
294
285
295
308
297
291
297
312
304
297
300
317
311
300
301
317
312
302
303
318
316
305
303
318
319
307
305
320
323
310
305
320
323
312
305
315
324
310
303
305
318
391
334
302
313
301
294
299
314
306
298
301
320
312
306
308
326
317
307
308
327
323
313
310
329
327
315
309
327
328
318
311
326
329
317
310
325
331
317
310
320
329
314
293
363
393
313
297
301
317
305
294
298
311
303
293
295
311
304
291
287
304
298
283
278
295
291
278
272
287
288
272
268
279
279
258
238
236
234
208
190
195
200
183
171
178
180
240
215
174
187
179
174
180
200
194
189
194
218
215
211
216
238
234
225
226
249
251
242
242
262
265
254
252
270
279
269
263
280
291
280
274
290
301
288
282
294
308
293
290
382
354
304
295
301
320
314
308
312
332
327
320
322
343
340
328
326
345
343
331
328
347
346
331
326
343
348
333
327
343
350
336
328
340
353
338
328
339
351
336
325
333
332
382
398
327
336
322
311
313
331
324
313
315
335
328
319
316
337
331
315
312
329
330
315
310
329
331
319
313
329
336
320
312
325
335
320
311
323
336
320
310
317
330
318
306
298
371
381
305
299
315
306
294
295
312
306
296
295
316
312
300
297
312
309
298
292
309
309
296
287
304
309
293
288
301
309
294
287
296
309
296
286
295
309
295
284
293
301
300
363
315
305
293
284
286
306
301
288
289
311
308
298
296
318
313
296
290
311
312
298
292
307
309
293
286
299
306
290
282
294
305
291
284
295
306
292
284
291
307
297
276
332
388
304
285
285
303
296
285
287
308
303
292
294
316
315
303
299
317
317
305
300
318
324
311
304
319
326
315
307
321
330
316
309
320
332
319
310
317
332
319
307
310
316
374
380
310
319
310
297
298
316
312
301
300
320
317
306
305
323
324
307
304
321
324
313
305
322
331
316
309
323
333
317
310
323
335
321
312
322
338
323
315
320
338
326
308
320
420
350
308
307
325
318
307
306
328
324
310
306
326
325
311
305
320
321
308
299
314
319
304
295
309
316
302
296
307
316
302
292
301
314
302
291
294
311
300
291
288
310
373
315
286
303
296
284
284
304
286
273
272
293
292
281
278
296
296
284
279
297
302
290
284
300
311
298
289
303
312
299
290
299
311
298
285
290
304
289
279
282
288
336
345
282
294
286
276
277
299
295
284
285
306
305
296
292
312
312
294
292
309
314
301
294
310
316
303
297
308
319
306
296
307
319
308
299
305
320
308
296
303
317
297
325
385
329
304
291
291
311
305
293
292
312
311
299
298
317
319
306
300
315
318
304
299
314
321
307
301
314
325
311
303
314
326
312
303
312
328
313
302
309
324
314
299
303
406
356
299
298
318
310
299
299
317
315
303
301
320
321
308
301
316
320
304
300
312
318
303
296
308
320
304
295
306
316
303
293
300
313
300
290
295
311
296
285
279
309
368
302
277
296
288
277
278
297
294
281
280
300
299
287
284
300
300
284
281
299
304
291
283
297
307
293
287
301
312
298
290
298
312
298
287
292
307
295
285
276
332
372
293
280
298
290
283
281
303
298
288
288
307
308
296
290
310
311
298
294
311
317
303
297
311
320
306
299
312
323
310
301
313
328
316
306
312
330
317
308
310
320
387
364
309
324
316
304
305
325
319
308
304
323
322
307
304
323
322
307
301
317
320
304
298
314
321
308
299
316
325
310
302
312
329
316
305
312
325
314
303
308
321
314
389
346
320
310
297
297
316
312
299
300
319
317
304
303
320
320
304
299
316
318
303
297
315
321
307
299
312
323
310
301
313
328
315
306
315
328
315
303
308
325
313
290
348
388
315
294
296
316
309
298
296
313
310
296
293
314
312
296
290
307
306
291
287
303
308
294
286
300
308
295
287
301
312
298
289
301
315
299
289
296
311
302
283
290
382
326
284
284
304
299
285
286
306
302
292
292
313
312
298
295
312
313
301
293
311
317
299
296
309
316
301
291
303
313
299
290
297
312
295
284
290
305
292
283
276
351
365
284
279
297
289
277
279
297
293
281
278
299
301
288
283
298
299
284
278
297
301
288
283
298
306
292
287
298
291
272
260
268
283
268
258
264
282
271
260
252
326
355
272
267
289
282
274
276
299
296
285
285
308
307
295
292
311
312
301
298
318
324
311
305
322
329
316
311
324
333
319
312
325
339
326
316
324
341
328
318
311
361
414
329
314
332
324
313
314
331
326
313
313
332
328
314
309
325
320
304
299
314
314
297
291
306
310
296
288
302
310
295
288
298
312
295
283
292
306
293
280
277
360
339
279
279
296
289
277
278
298
291
282
282
303
301
290
288
305
300
284
281
299
298
280
271
286
290
276
269
283
292
277
269
283
296
281
273
285
298
286
273
277
375
327
274
279
298
290
280
283
303
297
289
292
314
312
301
299
319
314
301
299
319
319
306
301
318
324
310
305
321
326
312
304
319
329
312
303
314
324
311
301
297
372
388
305
302
319
307
296
300
320
309
299
299
321
315
302
300
318
310
295
291
310
308
295
290
309
311
295
289
306
312
299
291
305
314
299
293
303
316
301
290
301
311
294
369
347
312
297
288
290
309
300
289
290
311
306
295
296
316
309
293
291
309
307
294
288
306
311
297
294
312
318
304
296
312
320
304
295
308
318
302
292
302
315
301
290
285
344
369
296
288
305
296
286
286
305
298
288
288
311
304
291
286
305
300
286
279
300
299
285
280
296
298
282
273
290
298
282
272
284
296
280
269
277
289
273
263
269
274
297
338
275
279
267
256
260
279
269
257
260
278
271
259
256
273
266
249
240
258
258
242
236
254
259
243
236
253
262
246
240
256
266
253
248
260
274
260
252
262
280
268
247
318
361
279
262
268
288
281
272
274
297
292
281
282
305
302
289
288
307
306
291
288
307
309
295
290
306
314
299
293
309
318
304
297
310
326
312
301
311
326
317
305
312
316
348
387
315
320
304
294
295
316
307
295
295
316
313
303
303
320
319
306
300
320
320
306
302
320
323
309
301
315
323
311
301
315
324
310
305
316
326
313
302
310
324
306
287
364
361
303
285
288
305
298
286
287
306
300
290
290
310
308
290
287
306
305
292
286
305
308
293
288
304
312
296
290
305
317
301
296
308
320
306
296
306
322
303
290
374
359
308
294
299
316
308
297
298
320
312
302
303
325
320
304
300
321
320
306
300
320
323
308
301
318
324
307
300
315
322
308
301
316
323
307
297
306
321
304
281
357
381
303
286
288
307
294
283
285
304
297
284
287
309
304
288
286
304
303
289
286
306
306
292
287
307
310
296
289
306
315
301
294
309
320
305
297
309
324
308
286
328
410
322
292
296
316
305
294
297
316
307
296
297
319
313
300
298
317
312
298
296
315
315
300
298
317
320
306
303
318
326
310
305
318
329
313
303
312
327
311
301
305
324
397
334
303
319
305
294
296
316
306
292
294
314
307
295
295
315
308
293
288
306
307
292
288
307
309
293
289
303
308
293
284
297
305
292
281
292
302
286
278
284
289
301
352
295
291
281
272
276
298
287
275
279
299
294
283
285
306
301
286
284
307
304
292
288
307
308
296
289
308
313
297
288
303
313
296
288
299
309
294
284
294
298
311
365
308
306
293
283
288
310
298
287
292
313
306
294
298
317
310
296
295
315
312
298
295
316
316
303
298
318
322
306
299
315
323
308
304
316
325
311
302
311
323
296
347
383
325
305
293
300
321
310
299
302
320
312
302
300
321
314
297
296
317
312
298
295
316
315
301
298
317
320
307
302
318
325
310
304
318
327
311
301
314
325
310
290
341
415
321
297
302
320
308
297
298
317
307
297
302
321
315
302
300
321
317
304
301
321
318
306
304
322
323
306
301
318
323
307
300
314
324
309
299
311
324
308
295
308
309
358
354
304
313
300
288
294
314
302
291
291
311
304
292
294
313
305
291
288
309
306
295
291
310
309
294
287
305
308
292
286
304
308
294
287
299
308
292
281
293
300
285
351
320
301
284
275
284
300
290
278
282
303
296
286
289
311
302
289
286
308
305
292
289
311
312
297
293
312
315
300
294
312
320
306
300
313
321
309
300
312
323
297
343
385
328
305
294
301
319
309
300
305
324
315
304
306
327
318
303
302
323
317
303
302
323
320
306
300
320
323
308
302
321
325
310
303
319
327
309
300
312
321
305
284
322
405
319
285
291
306
294
281
286
304
288
271
266
282
269
249
245
259
249
231
224
242
236
219
214
232
232
214
209
228
230
214
205
220
222
201
187
192
196
177
164
171
177
150
213
200
155
130
117
118
134
120
107
109
128
116
104
104
123
113
94
94
106
86
67
82
73
54
66
78
59
56
78
55
40
54
36
14
18
23
15
20
43
32
32
63
61
57
74
146
157
108
132
151
145
149
178
195
192
195
219
241
237
239
259
279
272
268
284
306
300
296
303
324
318
312
320
345
340
333
337
362
360
353
355
378
379
368
368
393
383
409
458
409
397
375
363
376
380
361
352
367
377
359
351
364
378
363
352
361
381
369
361
366
385
374
364
367
388
380
369
368
391
384
367
367
387
380
364
359
379
378
361
344
417
459
368
352
365
373
358
348
365
374
358
347
359
375
359
350
357
366
351
339
343
360
346
335
338
357
347
333
335
357
347
332
330
349
343
327
324
341
340
324
318
336
338
307
338
413
341
304
293
301
290
252
231
236
241
220
206
217
233
218
205
212
230
220
211
216
240
232
223
229
253
249
239
243
269
265
256
256
280
284
271
269
293
297
285
282
298
303
362
325
301
309
297
288
303
317
305
296
310
330
320
313
323
339
326
314
319
341
332
321
322
346
338
325
327
348
343
329
326
348
344
330
328
346
346
332
327
345
352
326
342
425
369
330
322
337
349
335
323
334
349
335
325
332
351
337
323
324
333
320
308
310
333
323
309
312
331
324
311
308
331
327
313
308
331
330
315
309
327
330
315
306
319
317
378
364
317
324
308
297
311
328
310
299
307
325
311
303
310
326
313
298
300
321
312
299
300
320
312
296
294
317
312
298
293
314
314
301
295
315
318
302
294
314
320
302
284
337
409
318
292
306
320
305
296
305
322
309
299
307
329
317
306
307
324
314
300
301
323
315
302
299
320
315
299
298
320
318
304
299
317
320
304
296
315
320
305
296
310
306
318
366
312
308
291
282
293
310
296
285
293
313
302
292
296
314
301
286
288
309
300
286
286
308
303
288
283
305
303
287
283
303
305
290
286
301
307
291
282
297
304
281
351
334
304
287
279
289
307
294
283
293
312
300
292
297
318
307
293
293
317
308
296
295
317
314
299
299
320
320
306
303
324
328
311
307
328
333
315
307
324
332
317
300
331
422
342
304
312
325
312
303
310
330
316
305
310
333
322
308
310
330
319
307
308
327
320
303
302
324
322
306
301
323
324
308
304
323
327
311
303
320
326
308
300
314
324
298
306
395
350
302
289
297
313
299
289
293
313
303
293
295
318
308
292
291
314
309
297
295
317
315
298
296
318
319
301
296
316
319
303
296
312
320
305
297
312
320
302
293
303
318
290
325
379
325
300
286
295
313
304
292
294
317
307
296
297
319
311
294
291
314
310
295
293
314
313
295
284
301
302
285
277
294
301
283
274
290
300
281
272
283
296
281
269
267
310
356
283
271
290
281
270
273
298
290
278
281
306
301
289
289
310
305
293
292
314
314
297
294
315
318
302
296
316
325
311
303
320
331
315
306
317
332
316
305
317
333
308
319
400
352
312
300
302
324
313
302
304
325
319
304
305
328
321
306
301
322
323
308
304
321
322
307
301
318
325
310
302
315
327
309
300
314
326
312
299
310
324
310
300
303
314
382
355
299
316
302
290
291
311
303
289
289
311
309
296
293
314
312
295
292
311
314
300
293
312
318
304
296
313
325
309
302
313
326
313
303
313
329
312
299
304
321
306
285
310
404
330
290
292
314
307
294
296
318
314
299
299
322
322
308
301
319
320
305
298
318
322
304
296
311
320
300
290
305
317
300
291
302
318
304
290
297
315
299
285
288
296
352
327
280
298
289
277
281
305
298
285
286
310
310
297
295
318
318
303
299
319
325
307
301
319
326
310
300
316
329
312
302
312
327
311
298
305
321
305
293
298
311
304
371
328
311
298
284
285
309
304
288
288
311
309
297
293
317
316
298
290
311
315
298
292
311
318
304
296
312
323
307
297
306
321
305
296
305
321
308
296
300
321
297
325
388
332
304
290
291
315
308
296
295
318
314
299
297
319
319
301
292
312
315
297
289
309
315
299
288
304
315
298
287
302
317
300
291
302
317
303
290
296
314
299
275
338
380
304
281
282
302
293
278
277
299
298
282
280
305
306
289
283
301
302
285
279
297
304
288
279
296
307
291
283
299
315
297
289
300
316
300
291
298
318
304
281
312
394
323
291
293
318
309
296
298
322
319
306
306
330
331
314
310
329
332
314
306
327
330
313
305
322
330
313
303
318
331
314
304
314
331
316
302
310
329
314
301
297
345
401
319
298
318
309
294
293
318
311
298
296
321
321
305
303
322
323
305
301
320
326
308
302
321
331
315
307
324
334
318
309
322
339
322
314
322
340
324
312
318
340
326
301
358
417
331
305
305
326
320
305
303
328
323
307
303
325
327
307
302
320
324
307
300
319
327
310
300
317
331
314
304
319
333
317
306
317
334
320
309
316
337
323
308
309
331
320
305
295
387
382
302
295
318
312
297
293
317
314
298
294
314
318
302
296
313
317
297
291
306
317
299
289
303
317
301
291
303
319
302
289
295
316
301
288
290
313
298
283
285
307
299
284
272
352
361
288
277
301
299
284
281
304
308
292
288
309
316
300
292
309
316
299
293
308
319
304
292
305
320
306
295
303
323
310
297
303
325
312
299
301
322
313
301
302
325
318
291
355
388
320
298
291
314
315
298
293
312
320
304
297
319
327
310
299
311
323
307
296
308
325
309
300
308
328
312
300
307
327
316
304
305
328
316
303
304
325
317
303
301
326
320
292
348
400
325
299
292
312
319
300
293
313
319
303
294
310
324
308
295
307
320
303
293
302
320
303
292
296
316
304
289
293
314
304
290
290
315
308
295
299
319
314
299
294
316
310
295
368
350
308
286
280
299
304
287
278
296
307
293
283
299
312
296
284
295
309
295
284
292
311
296
285
289
308
296
282
284
309
299
283
286
307
302
284
280
301
298
282
269
296
371
308
271
288
296
279
273
294
304
289
281
297
315
300
291
303
316
302
291
300
323
309
298
302
324
312
300
302
324
314
300
301
323
318
305
301
324
322
304
300
319
312
371
352
317
315
298
292
310
319
304
296
310
324
308
301
316
330
313
301
312
331
316
306
310
333
319
305
310
330
321
307
306
331
322
308
305
331
325
307
301
325
322
304
286
370
394
302
287
306
311
295
286
304
317
302
292
306
323
308
299
308
324
310
299
306
325
313
301
305
327
315
302
305
329
320
305
304
328
323
308
306
327
324
308
303
325
316
323
391
340
320
301
294
312
322
304
295
310
324
306
298
309
325
309
294
301
320
306
293
297
319
309
296
298
321
314
300
301
324
317
300
298
320
316
297
292
315
316
295
279
366
361
290
278
295
303
286
274
291
304
288
282
293
312
297
286
293
310
296
285
291
313
298
285
289
310
299
286
287
311
302
288
285
311
304
288
282
304
305
287
272
365
352
286
274
294
304
288
280
299
312
295
290
304
321
306
294
302
319
304
292
298
321
308
305
313
340
329
318
320
344
336
325
328
354
351
333
329
351
349
330
318
339
425
367
315
330
339
319
311
326
334
315
305
318
330
313
300
309
325
308
295
304
323
309
296
299
321
305
290
293
317
309
294
294
317
310
295
288
309
308
292
285
301
302
370
328
300
305
286
279
299
309
292
283
299
314
297
286
297
314
296
287
294
313
298
285
290
311
297
286
288
311
303
286
286
312
305
290
290
312
308
292
287
309
309
281
326
382
320
290
282
303
313
294
285
301
314
298
290
305
324
308
295
302
323
308
296
303
325
312
301
304
326
316
301
300
324
317
301
300
321
313
296
291
313
312
282
307
382
322
287
278
298
308
291
284
301
314
299
291
305
320
303
291
300
319
302
289
297
317
304
292
295
316
305
292
294
318
311
294
296
320
316
301
298
323
321
297
287
390
365
294
284
304
309
291
284
302
313
293
284
300
317
301
288
299
316
299
285
293
313
297
285
290
313
302
289
290
313
305
291
292
316
311
295
290
315
312
294
290
301
328
386
310
304
308
292
284
303
315
298
288
304
319
303
293
304
319
302
289
298
320
303
290
294
315
303
290
293
317
306
291
292
317
310
295
294
317
314
297
292
312
313
293
288
298
332
380
302
301
308
292
283
298
311
294
284
296
314
300
288
298
313
296
284
291
311
299
284
283
303
291
276
277
300
292
277
277
299
295
279
275
296
297
278
270
290
292
273
254
309
364
284
261
277
292
278
271
285
302
287
277
289
309
295
284
289
310
296
286
289
312
304
289
289
314
305
290
290
313
311
293
291
315
317
300
293
315
319
301
295
313
311
363
360
312
317
300
288
304
320
305
293
305
323
310
299
307
328
314
302
305
326
315
299
299
322
314
300
298
322
319
300
298
321
319
303
297
320
320
301
296
314
323
297
304
402
350
301
289
303
318
299
288
298
314
300
287
294
316
301
288
291
314
301
285
289
311
302
288
287
311
304
287
286
310
308
290
287
311
314
295
288
311
316
297
288
298
386
350
286
300
315
297
285
299
317
303
292
301
321
306
295
301
321
306
290
294
320
312
295
294
322
315
297
295
323
322
303
300
325
326
306
298
318
322
302
288
306
391
332
285
299
311
292
278
288
304
288
278
288
311
296
283
289
312
300
289
295
321
310
297
299
323
315
299
297
323
318
304
303
328
326
308
302
325
328
311
291
359
406
314
294
310
324
306
297
311
326
311
300
314
332
320
307
314
332
318
304
306
330
318
304
305
328
319
303
301
324
318
302
298
323
319
299
292
314
316
299
280
327
404
312
282
298
309
290
280
297
310
292
282
294
315
298
287
291
309
294
280
286
309
296
280
281
305
297
281
281
306
299
284
281
307
305
287
282
305
306
289
284
297
311
377
313
295
304
287
278
294
307
289
276
288
306
291
278
287
306
290
277
282
307
293
281
283
310
301
287
288
313
305
289
286
312
308
292
289
311
311
293
288
311
314
284
333
371
317
291
282
299
313
297
286
301
317
300
289
298
319
302
286
292
313
300
287
289
311
300
285
288
310
305
288
287
314
309
292
289
313
311
295
291
314
318
289
299
387
334
294
282
301
315
294
284
299
315
298
288
302
322
307
291
298
318
306
292
299
322
311
296
296
321
308
291
292
316
309
289
287
316
311
295
292
315
318
298
279
366
383
300
284
303
315
298
289
305
319
302
293
306
325
309
294
300
321
304
289
298
321
308
296
297
323
312
298
298
321
314
295
295
321
317
296
290
314
311
291
283
293
357
372
290
300
310
292
282
296
309
291
280
296
312
297
285
294
316
298
286
292
315
302
288
293
317
306
294
294
320
314
297
296
319
315
300
296
318
317
298
294
315
313
294
371
349
310
288
279
294
306
288
277
290
306
290
279
290
312
296
285
290
310
297
282
288
310
299
287
288
311
303
286
287
313
306
289
286
311
307
290
283
305
306
281
272
367
337
276
263
280
287
267
258
275
290
272
263
279
297
278
264
272
293
278
266
273
296
281
267
270
296
289
272
274
302
296
277
278
304
297
273
254
277
280
255
259
357
316
270
262
288
299
282
274
293
310
291
280
296
313
299
284
293
315
299
287
294
319
308
292
298
318
290
278
280
311
302
288
290
316
313
296
295
323
323
294
322
408
340
302
296
317
326
308
299
320
334
315
307
321
339
319
304
314
333
314
300
307
328
312
299
303
326
313
298
299
324
313
296
294
316
308
286
278
299
295
263
306
375
298
265
260
283
291
272
264
286
299
282
274
294
312
294
282
295
314
297
285
296
318
303
289
297
320
310
296
301
327
314
297
300
330
320
301
301
325
320
298
286
394
371
300
292
316
322
302
294
313
324
306
294
312
327
309
297
311
325
307
292
305
327
309
298
305
329
313
298
305
327
316
301
302
331
321
302
301
326
317
296
289
305
369
340
284
300
304
283
274
297
305
285
277
298
312
292
282
301
315
298
285
300
319
303
289
297
322
305
292
298
325
312
295
299
326
316
296
298
322
313
298
295
310
349
366
289
301
301
282
275
300
305
286
278
300
311
291
281
298
312
290
278
293
311
292
281
292
314
296
284
292
317
301
287
292
318
306
292
293
318
306
293
293
321
307
309
386
345
317
295
291
316
319
300
292
315
325
304
296
316
328
305
292
307
323
305
294
308
326
309
296
303
326
308
294
299
322
307
290
295
320
305
286
284
310
302
282
268
336
384
288
266
291
291
271
267
293
301
281
274
296
304
286
275
291
304
286
276
293
311
292
280
291
312
297
285
292
316
302
285
290
314
302
286
286
313
303
286
284
308
295
349
326
306
300
282
277
303
306
287
281
303
313
296
285
308
318
295
283
302
318
298
286
300
320
303
291
299
321
307
294
302
325
312
296
302
324
313
296
296
321
313
283
348
375
315
292
289
315
317
297
291
317
323
305
298
318
329
309
295
313
326
305
292
307
323
304
290
302
323
304
290
297
320
305
288
291
316
304
285
286
310
299
281
279
293
351
351
272
289
286
269
260
284
287
265
256
280
288
267
258
277
287
266
256
273
288
269
256
268
289
273
261
272
294
280
266
275
302
294
281
288
317
308
291
293
320
314
286
311
415
338
296
290
316
317
298
293
316
323
302
295
314
325
304
293
310
325
305
295
313
328
305
292
302
323
307
294
303
325
312
298
305
332
321
305
305
333
324
306
304
322
325
376
318
316
313
294
287
311
314
292
285
309
318
302
292
315
326
304
292
310
326
308
295
308
327
309
296
304
326
311
298
304
328
312
297
296
322
310
292
292
315
293
330
345
309
296
276
271
297
298
277
272
297
301
283
276
298
305
284
271
290
303
285
271
288
304
288
277
286
310
290
275
285
306
291
277
275
300
284
263
263
287
265
308
333
283
265
244
238
265
266
249
246
273
281
265
257
278
279
253
237
249
256
230
215
233
256
246
243
266
293
281
276
292
322
313
302
312
338
327
316
319
339
401
383
330
354
350
332
327
353
352
332
326
351
355
336
329
350
356
335
324
337
345
323
311
329
345
327
315
330
351
332
324
333
354
339
329
338
364
342
368
414
382
359
344
347
371
366
350
345
369
364
346
338
359
358
336
326
343
346
328
316
332
338
320
308
321
333
313
299
309
323
304
289
298
315
299
285
277
341
369
286
276
298
287
273
273
301
288
272
271
298
293
274
267
295
291
273
268
292
295
275
270
292
300
280
272
291
300
279
268
285
298
276
263
276
296
278
256
328
366
283
261
267
292
278
263
265
291
278
264
265
293
287
269
267
294
291
272
268
296
297
278
272
297
303
283
274
296
306
284
277
296
312
291
277
295
313
296
281
289
392
349
284
288
311
298
283
287
314
301
286
288
315
305
288
286
312
306
286
284
311
310
290
286
312
318
296
289
312
320
300
290
310
323
306
297
314
333
315
302
316
325
347
375
319
328
312
297
304
331
319
303
307
336
324
308
308
333
324
303
299
325
322
301
297
321
324
304
294
318
324
303
292
313
325
304
294
310
325
306
293
309
326
306
362
338
327
306
294
301
324
308
293
297
323
310
297
299
326
316
293
290
317
312
292
286
313
311
290
285
310
315
294
287
311
320
298
289
307
320
297
283
300
317
294
281
370
354
296
279
288
312
296
281
286
312
301
286
288
318
307
288
286
313
309
288
284
312
309
288
283
306
310
289
281
305
312
291
280
300
314
294
280
294
310
292
278
293
301
346
344
286
301
285
270
275
301
288
270
274
301
290
275
274
302
292
273
272
300
297
278
273
301
304
284
276
301
308
288
278
300
311
290
281
298
318
295
285
302
321
304
288
301
399
341
289
293
319
305
291
295
322
312
295
295
324
317
301
299
323
318
298
293
320
318
298
292
316
320
299
288
311
319
298
288
307
322
301
288
303
322
303
288
299
309
338
350
302
315
300
287
292
318
304
285
287
316
307
290
290
317
310
289
285
311
311
291
284
309
315
296
286
309
317
296
284
304
315
293
285
302
318
298
285
300
320
291
313
374
332
300
284
290
317
305
288
291
318
306
291
291
320
314
293
288
315
312
293
288
313
317
296
289
315
322
300
290
312
323
301
289
310
327
304
291
306
325
305
288
292
394
354
285
288
316
300
284
288
313
301
282
284
312
303
286
284
310
305
285
281
307
306
285
279
302
307
284
276
297
308
287
277
294
310
290
276
290
308
290
276
286
296
333
343
286
303
288
273
278
304
293
276
278
306
297
280
276
304
296
274
266
289
285
263
254
278
280
256
248
270
280
258
247
267
282
263
251
265
284
266
254
266
276
302
323
272
284
270
257
263
290
278
263
267
296
288
273
273
303
296
276
272
300
299
280
272
299
304
284
275
300
310
290
280
302
315
297
284
301
319
299
286
297
311
367
338
296
314
299
284
290
317
302
286
290
317
307
291
293
321
312
292
289
317
314
294
288
314
316
298
289
314
322
300
292
313
325
306
291
309
324
305
292
303
316
372
347
300
319
302
288
296
322
308
293
296
324
313
295
297
323
314
294
290
319
315
294
289
315
316
297
290
313
319
297
289
311
321
299
291
308
320
300
287
303
319
292
357
341
316
296
280
288
313
298
282
285
313
301
283
285
313
303
282
278
307
301
281
278
306
306
286
280
305
310
290
280
304
312
290
280
301
313
292
280
296
314
290
274
358
344
291
274
284
308
292
278
282
310
300
286
289
320
313
294
292
320
312
293
289
316
316
296
291
316
320
299
291
314
321
300
291
311
324
301
290
307
322
303
278
315
401
320
285
294
318
302
286
292
319
304
287
289
317
306
288
286
312
302
283
279
307
303
283
276
301
303
283
275
298
305
285
274
297
309
289
277
296
312
291
276
290
298
317
360
299
307
289
274
283
308
292
278
281
311
298
281
283
311
301
282
279
308
304
284
279
306
305
286
280
304
310
291
282
306
315
295
284
304
320
300
285
300
320
299
287
295
314
375
331
290
312
296
279
284
311
296
281
281
309
300
281
279
309
301
282
277
305
304
285
279
304
307
287
277
301
308
286
278
297
311
289
278
295
313
292
279
291
312
294
280
279
351
359
286
283
310
299
283
285
315
303
286
285
314
310
292
287
315
310
290
284
312
312
291
283
308
315
296
284
306
318
298
285
304
322
303
290
304
322
301
288
298
322
292
313
371
328
297
280
284
310
299
282
282
313
304
286
287
315
312
290
283
312
313
291
284
309
315
293
284
306
315
295
285
304
320
301
289
305
323
301
287
300
322
302
280
297
399
328
279
283
310
296
279
278
304
293
275
275
305
299
282
277
304
302
281
273
300
303
280
271
296
305
284
273
294
308
288
277
294
310
292
276
289
309
287
263
352
358
286
265
272
298
283
267
269
297
286
272
273
301
296
275
271
300
297
276
272
300
301
280
272
296
302
282
270
292
302
280
266
283
296
268
247
258
265
257
320
260
256
232
217
225
253
237
223
228
256
246
231
233
263
249
228
224
249
243
217
209
234
232
209
201
224
225
201
190
210
215
189
173
187
199
172
158
162
218
232
158
159
185
171
160
172
200
189
174
182
212
203
187
193
220
202
183
182
210
204
183
180
208
212
195
190
219
222
204
199
228
239
219
207
228
241
218
198
283
275
214
199
216
241
226
210
223
248
232
218
229
259
250
238
240
271
262
248
248
280
273
252
250
278
276
262
262
292
293
272
265
286
291
268
254
268
263
220
266
256
212
178
160
168
180
153
129
134
153
128
106
110
131
105
70
66
69
28
7
20
10
10
10
10
10
9
9
9
9
9
9
9
9
9
9
8
8
8
8
8
8
8
8
8
8
8
8
8
7
7
7
7
8
7
7
8
7
7
7
7
7
7
7
7
7
6
7
69
76
82
133
166
170
184
230
258
256
252
276
297
284
279
304
329
316
312
339
375
359
395
474
434
411
404
413
448
441
426
424
450
437
417
412
441
430
405
398
424
421
398
392
418
420
398
388
409
416
393
378
398
409
383
370
387
405
385
372
386
412
394
380
382
444
492
401
389
420
406
393
399
428
416
396
396
426
417
398
392
417
417
397
391
418
420
398
391
418
423
403
393
413
427
402
388
403
419
394
378
395
411
386
368
374
398
373
346
429
420
364
334
321
340
327
309
312
343
336
314
342
388
393
387
380
404
395
367
361
392
397
375
361
398
401
378
365
385
395
371
358
376
405
381
363
369
390
368
343
353
443
392
349
352
381
375
363
362
396
392
376
371
400
397
372
359
370
365
338
326
343
347
316
299
310
312
287
272
294
301
281
266
281
288
259
242
251
259
235
215
238
331
274
236
246
278
263
246
251
282
274
257
259
293
298
286
295
336
338
325
327
368
373
360
360
394
404
386
377
408
421
399
391
411
426
403
388
403
416
395
365
411
477
395
364
371
396
378
356
359
380
364
345
347
374
361
340
338
366
357
334
330
362
359
344
341
367
375
351
346
372
378
359
346
369
383
354
340
354
371
347
324
336
417
355
297
302
326
301
284
284
296
261
235
230
262
253
237
239
268
263
243
240
276
278
261
260
287
294
274
262
274
258
207
179
262
406
608
611
611
611
610
609
608
609
609
608
608
607
607
607
606
606
606
606
605
606
605
456
396
359
294
230
195
193
156
99
64
54
37
37
36
35
35
34
34
34
33
32
33
32
32
30
31
30
30
30
29
29
29
28
27
28
28
27
36
33
51
77
59
68
100
96
65
62
79
65
76
110
99
97
133
145
127
130
147
191
157
167
185
195
177
174
199
220
206
201
217
239
222
204
289
316
250
231
236
262
254
241
250
280
246
213
201
226
223
210
215
251
256
246
251
283
291
275
278
310
322
304
300
320
335
319
313
337
356
337
329
345
368
352
341
358
372
379
434
381
382
368
354
361
390
381
366
370
400
393
377
377
406
402
380
375
399
398
378
371
395
399
376
367
387
395
373
361
380
393
370
357
371
390
366
352
363
382
364
339
367
453
377
337
342
366
353
335
337
364
353
336
336
364
359
340
337
362
360
341
336
362
365
344
338
361
368
346
335
356
366
344
332
349
364
340
325
338
356
335
319
317
382
396
322
313
336
319
298
299
321
306
287
286
303
293
273
269
294
290
268
263
289
288
266
257
280
285
261
254
275
287
265
256
275
290
271
257
272
293
276
262
270
297
356
297
268
294
279
265
271
299
289
274
278
310
304
289
292
322
320
300
298
327
328
305
294
309
310
289
281
306
316
296
286
308
323
304
293
309
328
308
296
311
321
338
380
321
329
312
297
304
332
318
302
306
335
328
311
312
343
335
315
312
340
339
317
313
339
343
320
314
338
347
323
314
337
349
330
319
337
352
330
318
332
350
320
358
400
356
327
314
320
348
331
314
318
346
335
320
321
351
342
322
319
348
344
322
316
344
344
322
317
343
349
326
316
338
349
326
316
338
350
328
315
330
348
318
309
391
370
321
303
312
338
320
304
310
337
323
304
307
334
323
303
300
327
320
297
293
317
315
292
284
309
311
287
276
296
301
274
263
282
286
259
240
251
264
235
212
297
290
224
206
216
241
226
214
223
256
247
235
243
278
274
260
262
295
290
273
271
299
298
278
273
303
307
287
281
309
318
298
291
317
329
309
298
320
337
314
288
343
414
323
295
306
330
313
298
307
334
318
303
303
328
313
289
286
309
296
277
274
301
295
273
268
295
294
269
258
282
285
262
253
276
286
262
253
276
294
275
256
292
388
309
272
285
312
297
284
296
324
308
295
302
333
321
301
299
327
318
300
303
333
327
308
307
338
338
317
310
337
339
316
308
334
340
315
307
328
340
315
294
375
388
317
297
314
336
317
305
318
345
328
315
325
356
340
324
326
355
344
325
323
349
336
314
308
334
327
302
294
319
313
289
280
302
304
280
269
290
298
262
305
350
298
267
255
273
296
276
264
282
307
294
283
298
327
313
298
306
336
323
307
311
340
328
309
310
341
336
314
313
344
345
325
322
349
352
331
323
350
357
329
397
402
362
337
326
346
364
341
330
346
368
348
333
347
373
353
336
344
372
353
335
340
366
353
334
334
363
352
331
328
356
352
328
323
352
348
325
316
342
346
316
306
410
383
312
298
321
335
312
299
317
336
314
301
315
340
322
305
314
340
322
307
314
343
330
311
315
344
334
315
314
345
338
317
315
345
343
320
313
340
343
320
311
324
383
384
310
322
336
312
299
318
336
315
303
319
343
322
307
319
343
323
310
320
348
333
317
322
352
340
322
325
356
347
326
324
353
350
327
322
350
349
325
316
336
341
386
341
329
338
312
299
321
335
311
298
315
335
313
301
315
337
314
298
307
334
317
301
306
334
321
302
305
337
326
307
306
336
330
309
304
331
327
303
297
322
313
344
352
313
311
285
273
295
308
282
271
291
310
288
276
293
315
292
275
289
315
295
280
287
316
299
281
285
315
303
283
285
318
309
289
288
320
315
291
288
319
320
291
289
396
360
295
283
308
319
295
282
304
321
297
286
305
327
307
292
306
330
312
296
307
335
317
300
305
334
321
302
305
337
326
306
305
337
332
310
306
336
335
313
307
335
328
338
391
346
336
309
300
324
339
315
305
323
344
322
310
327
349
327
313
324
350
330
314
320
350
333
316
319
349
338
318
320
350
341
320
319
348
345
320
314
343
343
321
308
332
409
353
305
327
338
315
303
325
342
320
308
325
348
327
312
324
347
326
309
317
344
326
307
313
342
328
308
312
341
330
311
308
337
332
310
306
333
331
308
300
328
322
322
377
341
325
301
292
315
327
303
291
308
326
304
290
305
325
304
287
297
323
303
287
293
321
305
285
287
316
304
285
284
316
308
287
285
314
311
290
283
311
312
289
283
305
312
369
328
309
317
295
284
307
323
301
289
306
328
309
296
310
333
314
298
307
334
318
301
307
335
322
304
306
338
327
308
309
338
333
310
307
336
333
309
301
330
332
309
301
316
389
381
304
321
335
312
301
320
337
315
299
314
333
313
297
309
332
314
300
309
339
326
310
315
346
334
317
321
352
345
327
327
357
354
332
328
356
354
333
326
352
358
323
353
410
366
330
320
342
361
338
325
347
371
353
341
355
380
360
343
351
377
360
342
347
372
357
337
338
366
352
330
327
354
348
324
320
346
341
318
306
328
324
287
328
370
320
285
270
293
302
275
261
279
298
276
263
279
301
282
265
274
301
283
267
274
303
288
271
274
305
293
275
275
308
302
281
281
312
307
286
282
311
314
283
285
387
348
289
277
305
318
295
284
308
328
305
293
312
335
314
298
311
335
316
299
307
336
318
299
306
335
321
302
302
334
322
301
302
334
330
306
302
332
332
309
296
327
410
348
297
321
330
306
294
317
332
308
296
315
334
312
297
310
333
311
294
303
330
307
290
293
320
301
273
266
292
276
254
255
287
281
262
262
294
292
272
268
300
303
272
331
367
320
289
281
309
324
302
289
311
331
309
296
315
338
318
302
314
342
321
306
314
345
329
310
316
349
336
318
318
352
343
322
321
354
348
324
320
352
351
326
309
378
419
334
312
337
348
324
311
335
351
326
313
332
354
332
315
328
351
329
313
321
348
328
309
315
344
328
308
309
341
328
308
306
337
331
308
302
333
331
310
303
332
325
362
367
331
332
307
295
320
333
308
296
316
336
313
299
316
337
311
293
304
330
309
292
299
329
312
293
297
328
315
295
294
327
318
297
295
326
324
300
294
324
327
304
296
312
362
386
305
314
325
302
290
311
330
304
289
308
330
309
295
310
334
313
294
303
332
315
297
304
334
321
302
304
337
327
305
306
338
333
311
307
338
337
313
304
334
338
313
302
316
374
382
305
317
331
308
297
315
334
312
297
311
334
315
300
309
336
314
298
304
333
318
300
303
336
325
308
309
342
335
314
311
343
339
316
312
343
342
317
309
336
344
315
299
391
383
317
299
320
338
313
299
315
337
315
300
314
339
319
301
307
333
315
296
300
330
316
295
296
327
315
293
292
323
318
295
288
320
319
297
288
318
323
297
288
314
311
340
358
315
321
296
283
303
324
300
286
302
327
308
293
304
335
315
296
303
333
318
299
301
334
320
299
299
332
325
302
299
329
327
302
295
327
329
305
295
320
330
307
288
326
414
337
293
311
330
305
292
308
331
309
293
305
334
314
298
304
335
317
296
300
332
319
297
296
329
320
296
295
326
323
299
293
325
326
303
295
321
328
301
291
317
327
291
327
387
334
296
281
298
318
296
280
293
320
301
285
294
325
307
290
296
327
313
294
297
329
319
298
297
329
323
300
296
329
329
306
300
332
338
311
303
328
339
314
298
317
402
352
298
312
334
308
295
311
335
312
294
305
335
317
302
307
336
319
300
304
336
324
304
304
339
331
308
304
334
330
305
298
330
332
307
300
325
332
306
291
311
393
346
290
306
324
301
286
304
325
304
290
303
331
310
295
303
332
314
294
298
330
317
294
295
328
318
296
293
326
324
300
294
326
327
305
294
322
328
303
295
317
317
362
350
312
322
298
285
304
325
301
285
299
325
307
289
300
329
310
291
296
327
314
295
297
329
319
298
298
332
325
299
296
327
326
302
295
326
328
302
294
322
331
304
281
365
406
313
289
308
330
306
291
306
330
308
291
304
331
311
295
300
329
312
292
295
326
313
293
290
324
315
292
290
321
319
294
288
318
320
297
289
318
326
300
291
316
330
297
294
389
358
305
289
305
328
305
289
302
328
309
291
298
330
312
291
285
313
297
274
275
309
298
277
274
308
305
281
276
308
310
286
278
309
316
292
283
308
321
297
284
302
321
370
317
300
321
296
282
296
324
303
288
299
332
314
298
304
334
318
300
301
333
323
301
300
333
327
303
300
333
333
308
302
333
337
313
304
331
342
313
301
324
339
315
295
313
414
354
297
307
334
312
294
305
333
314
297
303
335
320
300
302
332
319
299
298
332
323
299
293
324
322
297
291
321
324
299
290
319
328
302
292
314
328
304
291
312
331
296
345
380
334
304
288
298
325
306
289
296
327
311
293
298
330
318
295
296
329
321
299
297
331
327
303
299
330
332
308
299
328
336
312
300
327
339
314
298
320
337
313
299
315
326
370
357
313
334
314
297
305
335
318
299
304
339
326
307
310
345
334
312
308
342
336
312
305
337
339
313
305
335
339
315
303
331
343
317
305
329
344
320
304
322
343
311
299
384
365
311
292
302
331
312
293
299
331
314
295
297
329
319
298
296
330
324
300
295
326
325
299
291
320
325
297
289
315
324
297
284
306
323
297
281
302
320
297
283
296
314
365
339
292
315
295
276
283
315
297
278
282
315
306
286
286
320
311
288
285
320
316
293
289
318
325
298
292
321
330
305
294
319
333
306
293
314
333
308
292
310
333
309
290
297
405
358
288
293
322
304
285
291
324
308
288
289
324
317
294
291
325
321
297
291
324
326
301
294
321
329
302
292
319
330
306
293
315
333
307
293
315
334
311
295
308
336
311
287
368
380
313
289
296
329
314
295
296
330
321
300
298
332
329
305
298
331
331
306
301
329
336
310
299
327
337
312
300
321
338
312
299
320
341
318
300
315
340
317
300
305
332
384
337
303
331
315
294
298
330
317
296
295
329
324
299
296
327
322
298
290
320
325
297
289
317
326
301
286
310
326
299
283
303
323
300
285
302
324
301
284
295
324
303
274
312
404
319
280
281
314
302
282
282
316
309
287
286
318
316
293
286
316
319
294
286
313
322
298
287
312
325
301
288
309
328
303
290
306
329
306
291
305
332
309
291
300
331
309
290
377
371
312
290
291
325
314
291
289
321
317
294
288
321
322
295
286
315
321
295
285
312
324
300
285
308
325
300
286
304
325
302
286
300
327
304
287
297
326
308
289
294
326
312
280
324
399
323
287
285
319
313
289
285
316
315
292
286
316
322
295
284
309
320
295
283
308
325
300
287
305
327
302
287
302
326
306
289
300
328
309
292
297
328
309
290
293
325
302
307
364
338
311
286
284
317
315
293
286
318
323
299
291
318
331
304
292
318
333
309
296
317
337
313
299
313
338
316
299
312
339
318
300
306
338
320
302
303
337
322
303
304
336
319
371
359
336
329
303
297
329
330
304
295
323
332
306
296
321
334
308
292
314
332
307
292
308
332
309
293
306
333
312
295
304
335
316
298
302
334
321
301
301
333
322
301
297
329
312
332
377
335
320
294
285
314
320
294
285
310
324
298
286
310
328
302
286
303
327
302
286
301
327
305
289
299
330
309
292
295
329
313
293
294
326
316
296
294
327
323
300
294
326
318
303
370
352
326
300
290
317
330
304
292
313
329
304
290
311
333
306
292
307
333
312
295
307
336
317
299
305
338
323
303
305
338
325
304
304
339
329
305
301
334
331
304
288
377
388
306
288
317
325
299
288
312
328
302
289
312
332
308
292
306
330
304
288
298
326
308
289
298
328
309
290
293
328
315
296
296
331
326
305
299
332
331
306
300
330
322
350
373
332
330
303
292
318
332
304
290
311
330
307
292
310
334
309
292
301
329
308
290
296
329
311
293
297
331
318
297
295
331
322
298
297
332
327
302
295
327
328
300
288
315
403
346
287
309
324
297
284
304
323
298
284
304
327
307
290
302
329
307
290
299
330
311
290
294
328
313
295
297
332
322
299
296
329
325
301
294
324
324
297
289
318
323
288
346
368
326
296
284
307
326
301
288
307
329
307
292
306
335
314
295
304
333
312
294
298
329
314
294
293
328
315
293
293
328
323
299
295
330
327
301
294
323
328
297
289
388
363
303
287
311
329
303
289
309
332
309
293
310
337
315
299
306
335
316
296
302
332
316
300
302
338
323
300
298
331
325
298
295
327
327
300
293
323
329
302
292
306
366
379
296
307
323
295
282
302
324
296
282
299
325
304
288
299
328
307
288
294
326
310
290
294
328
315
295
295
330
324
300
297
330
327
302
295
328
330
303
294
321
331
301
281
382
386
304
285
305
326
302
287
303
328
305
288
299
329
311
293
304
337
321
303
309
344
331
311
310
346
337
314
312
344
342
317
311
344
347
320
310
338
345
319
307
332
344
306
318
405
358
309
292
309
334
308
292
305
330
309
291
299
331
313
292
295
328
313
290
291
326
315
293
291
325
320
297
293
324
326
301
292
323
328
303
292
316
329
303
289
313
323
307
361
330
324
297
281
294
321
299
280
289
319
300
283
287
321
305
282
284
317
307
285
282
317
311
286
281
314
315
289
280
312
318
293
281
309
324
295
283
306
322
296
280
288
378
359
283
291
317
296
279
290
318
300
282
288
322
307
287
289
322
309
288
285
320
313
289
285
318
317
291
285
316
322
295
284
315
324
298
286
311
330
302
289
309
331
306
283
314
416
333
287
295
324
305
285
291
322
301
278
277
288
271
247
245
281
274
251
249
286
285
260
256
290
295
271
261
295
307
281
271
300
318
293
283
307
328
306
291
309
336
312
284
349
412
323
293
302
336
320
300
303
340
326
304
306
342
336
312
308
342
341
316
308
339
342
314
306
334
342
315
302
328
342
316
304
326
348
323
309
325
349
326
311
323
353
322
365
374
352
325
303
306
341
325
303
302
336
328
304
302
336
332
304
296
328
330
303
294
325
331
305
294
320
332
306
294
315
334
309
294
311
337
311
295
306
332
310
291
287
363
385
298
290
320
305
285
285
320
310
287
288
322
320
296
290
322
321
296
287
317
323
297
284
312
325
298
284
309
327
299
285
304
327
303
285
299
328
304
285
294
325
305
282
283
396
356
282
279
315
304
281
278
312
309
283
280
314
315
291
281
310
316
290
280
307
320
294
280
305
323
296
283
302
327
302
286
302
329
307
289
299
333
312
293
299
331
316
295
285
363
399
308
290
325
320
294
289
321
323
298
290
322
329
306
296
322
335
307
295
319
338
312
297
316
339
313
297
309
335
313
295
304
335
315
296
301
336
321
299
301
335
325
302
290
342
399
322
292
323
324
298
291
322
326
302
292
322
333
306
294
317
333
307
291
311
334
307
293
307
334
311
293
304
334
312
294
298
331
314
293
296
331
317
294
293
327
318
286
287
395
350
287
275
307
312
287
276
305
317
290
280
305
323
297
282
302
323
299
282
296
326
301
284
294
324
304
284
288
321
304
285
286
320
309
288
288
321
314
292
286
321
315
286
359
368
321
292
284
315
325
300
287
311
329
305
292
315
336
312
295
310
336
312
296
306
335
314
296
302
333
317
298
299
332
320
298
296
329
323
299
293
325
322
298
290
314
322
377
324
311
318
293
280
305
323
297
282
302
324
301
288
303
329
306
289
299
330
309
291
296
329
312
293
296
330
316
296
295
329
323
298
295
331
326
301
293
326
329
302
283
374
379
305
287
313
329
303
290
310
332
308
293
310
336
316
297
308
336
314
295
301
334
318
296
300
333
320
298
295
329
321
298
294
327
326
300
293
324
326
301
289
307
380
358
290
307
321
295
281
301
320
295
280
295
322
300
283
293
321
299
281
288
322
305
283
286
320
307
285
283
319
309
286
282
314
315
290
284
315
318
293
282
310
317
282
343
364
320
290
274
296
318
292
277
293
320
299
283
296
325
305
287
293
325
308
288
291
325
312
290
290
325
317
294
288
322
322
296
290
322
328
304
291
320
329
302
290
312
319
369
341
309
323
301
284
302
328
304
288
299
329
309
292
300
333
315
296
298
333
321
300
299
333
326
302
297
331
329
305
298
329
332
305
296
324
333
307
293
319
334
306
284
311
400
329
285
299
325
302
285
296
326
306
288
294
328
311
292
293
326
312
291
291
326
319
295
291
324
320
296
288
320
324
298
289
319
327
303
289
315
329
302
289
309
317
337
358
310
322
298
282
293
324
302
286
291
323
307
288
292
326
311
289
287
324
314
291
287
321
318
293
285
318
321
295
288
315
325
299
286
314
331
302
288
309
329
303
284
294
395
351
282
290
319
298
280
288
319
302
284
288
322
310
289
287
321
312
289
286
317
311
285
276
307
308
282
272
301
311
284
273
297
311
285
271
294
311
285
270
289
314
290
263
343
382
296
272
280
314
296
278
283
318
305
283
284
321
313
292
288
321
319
294
289
321
324
299
291
321
330
304
294
320
335
309
294
317
337
314
300
316
340
317
301
313
337
314
368
344
337
315
297
302
338
326
304
306
341
331
310
306
341
333
308
302
332
334
306
298
329
335
308
293
318
331
303
288
311
329
304
287
306
329
303
288
299
326
303
272
335
388
305
277
280
314
300
278
279
313
304
282
280
315
312
288
280
310
312
287
277
307
315
291
278
306
320
294
281
303
322
298
281
301
326
303
285
298
324
304
286
291
314
374
338
288
317
301
281
282
317
307
285
285
320
317
292
286
319
319
292
283
314
321
296
284
313
326
299
286
309
328
302
288
305
328
305
288
303
329
306
289
296
327
307
275
337
400
312
283
282
317
306
284
283
316
312
286
283
318
318
294
285
315
322
296
286
314
324
299
285
310
329
301
287
306
328
303
287
304
332
311
291
299
331
309
290
294
314
338
353
294
315
303
281
278
313
306
281
276
310
310
286
279
310
314
288
277
305
316
290
276
301
319
292
278
296
320
296
279
293
320
298
283
291
321
302
283
289
321
294
335
342
321
301
280
279
316
308
283
278
311
311
288
280
313
317
290
279
307
320
293
281
306
324
298
282
302
326
302
287
301
328
305
287
298
329
307
287
292
325
308
287
278
364
388
294
282
316
309
285
281
314
314
289
282
315
321
296
285
313
322
296
283
308
324
297
281
303
324
299
283
298
326
304
287
298
328
308
291
297
328
309
290
292
326
312
281
355
380
313
285
280
313
312
287
281
312
317
292
283
313
324
298
286
309
325
300
285
307
327
302
287
303
330
306
289
302
330
311
291
298
329
314
295
295
328
316
294
293
321
310
360
326
318
312
289
284
315
319
293
283
312
322
298
288
313
328
301
286
306
327
302
285
301
327
303
289
298
328
308
289
296
327
309
290
292
325
311
289
288
323
315
279
317
389
323
285
276
309
312
284