521
541
526
497
511
531
529
516
517
519
518
533
552
538
522
542
565
544
512
526
551
546
517
528
540
544
533
533
532
527
539
551
529
519
534
558
543
517
534
562
559
541
551
568
571
567
590
622
649
673
668
620
579
577
602
584
544
553
579
579
549
544
556
561
553
552
556
548
553
568
553
537
549
581
570
532
540
578
581
558
553
569
577
566
569
573
571
574
588
572
556
568
603
589
550
552
581
586
559
544
543
542
534
536
528
520
516
530
515
493
502
537
536
504
499
531
543
516
506
524
530
523
521
527
523
523
537
525
497
487
519
521
485
469
497
513
488
469
485
487
484
483
477
474
469
489
488
466
462
494
501
472
465
495
507
485
464
472
480
482
480
472
463
456
480
479
450
438
465
477
450
436
458
472
457
436
455
472
463
456
457
456
458
475
477
449
439
471
491
466
449
478
500
482
455
467
475
473
469
468
462
463
476
478
454
445
475
498
482
455
476
499
489
466
476
485
488
484
481
473
468
485
494
481
490
550
597
578
531
520
519
502
476
485
496
496
485
487
482
476
489
503
479
456
473
504
486
452
472
491
492
468
470
490
487
480
487
485
482
496
520
505
491
509
541
530
498
515
546
554
525
517
530
534
533
536
523
508
514
532
511
491
496
521
510
472
482
505
507
480
477
494
500
491
493
481
476
486
509
500
476
482
518
511
477
470
499
507
485
478
487
497
500
505
498
491
494
526
523
497
505
535
534
504
502
535
538
513
502
520
533
532
536
535
529
531
558
550
522
519
553
554
519
503
521
532
510
496
510
510
500
502
495
486
489
509
497
467
464
503
517
490
472
499
514
495
480
488
491
489
491
487
484
477
496
498
472
466
496
513
484
458
488
508
497
479
488
495
493
495
494
490
486
509
513
481
470
513
562
578
578
608
611
565
514
504
506
503
502
507
494
486
509
516
490
484
514
529
501
478
503
524
514
486
492
490
488
492
496
483
469
490
507
487
470
494
517
498
466
492
523
520
503
513
523
528
527
525
513
504
521
535
510
476
487
517
500
466
481
499
492
467
469
483
488
491
502
492
485
506
528
511
487
503
535
521
488
491
511
516
492
491
508
501
494
504
494
486
504
531
510
480
495
536
536
503
505
533
539
514
520
538
539
534
542
533
526
534
562
547
519
530
567
566
527
522
537
541
523
520
527
532
525
533
521
514
519
542
536
502
504
542
540
506
498
526
535
514
507
522
525
520
524
513
497
496
529
524
491
482
518
526
493
481
500
516
501
494
527
554
583
611
601
564
522
532
523
494
491
511
517
486
469
500
518
494
475
490
500
503
513
512
500
498
533
537
510
487
517
538
511
490
521
529
514
503
515
520
515
525
525
513
512
543
554
524
507
544
556
526
497
526
543
529
508
512
519
517
518
522
507
497
525
541
510
474
498
525
508
476
498
511
498
480
489
501
500
504
513
496
487
514
529
497
477
505
532
515
478
494
514
511
490
497
491
481
489
498
481
473
484
500
477
453
480
508
491
453
471
500
491
467
477
486
483
490
504
493
482
497
522
499
462
478
518
510
469
479
495
501
482
481
488
478
477
492
484
475
485
513
497
466
484
518
507
467
475
505
517
495
498
508
506
507
519
509
494
502
535
520
491
510
575
603
580
572
577
553
514
504
509
505
501
517
505
488
492
524
520
487
489
526
529
494
487
524
536
516
511
519
523
526
542
535
517
519
557
557
520
513
553
566
539
530
549
558
545
541
548
554
552
558
548
531
531
571
571
534
524
559
570
548
533
556
564
550
539
541
539
535
551
552
524
515
559
566
528
517
545
563
538
515
544
560
552
549
561
562
556
569
571
558
553
584
588
553
531
559
585
564
532
552
562
558
550
554
555
547
556
560
543
537
568
580
550
526
563
592
566
541
567
585
580
566
566
561
555
570
583
561
544
566
585
556
529
563
590
572
539
556
578
577
558
559
560
557
571
586
569
550
569
591
575
546
566
593
579
540
552
576
578
554
556
548
543
556
568
546
519
533
566
549
516
534
564
549
509
523
548
550
535
542
545
540
551
570
561
569
615
676
661
601
581
587
569
529
533
551
545
522
516
512
502
504
521
502
480
484
526
518
477
479
511
516
484
481
508
507
489
488
495
497
493
510
497
479
494
536
527
490
493
533
542
513
502
524
532
516
514
512
504
502
517
501
477
481
520
511
468
460
494
505
472
457
480
485
473
478
481
477
475
501
499
477
472
509
511
476
466
505
519
488
471
494
501
492
487
482
472
471
494
492
471
462
493
498
463
452
490
499
471
448
474
493
479
470
473
474
471
498
507
482
473
508
519
487
474
510
526
499
471
485
495
489
482
486
475
468
494
502
476
454
487
510
484
458
488
511
489
458
482
502
496
486
492
491
490
510
518
490
475
505
535
511
475
499
522
507
479
497
506
500
491
496
494
496
503
509
485
469
501
523
495
461
487
520
511
486
502
517
517
504
511
500
489
503
522
498
477
495
530
506
469
494
549
586
592
610
619
596
550
531
521
510
517
531
505
485
488
517
503
464
476
512
514
483
480
501
506
495
505
503
495
501
521
501
475
486
524
514
474
477
513
518
489
486
508
510
504
511
504
502
506
534
522
496
501
539
532
493
492
525
527
492
476
488
498
491
491
486
478
474
501
494
467
468
510
512
481
477
508
518
488
478
502
512
503
498
491
481
477
503
494
465
462
496
500
468
459
491
508
487
477
502
510
502
498
504
501
501
529
524
490
478
518
533
497
476
510
521
496
478
501
510
496
492
492
490
490
512
513
483
472
507
525
502
474
502
522
506
479
495
508
504
497
495
490
484
503
508
477
458
491
515
488
459
491
512
494
468
482
497
499
503
514
507
499
522
532
508
492
520
540
513
482
510
539
530
496
499
510
510
506
511
502
493
532
580
584
572
575
579
534
482
499
529
516
479
484
500
506
505
511
501
493
511
530
515
493
508
539
518
488
513
539
536
505
503
510
515
512
514
506
503
510
533
514
490
509
543
530
494
511
544
547
519
516
532
533
523
524
518
509
517
539
514
480
481
517
513
475
477
506
506
478
474
497
506
499
508
503
499
508
531
514
487
495
536
537
494
488
521
532
507
498
515
507
499
506
499
500
494
517
507
479
484
530
535
500
494
526
540
519
512
525
528
524
527
529
523
517
543
536
499
489
534
544
505
487
512
534
518
500
517
513
507
512
509
503
500
522
517
489
487
518
520
486
466
498
518
496
472
485
497
494
500
496
482
479
512
520
497
489
520
536
506
476
506
526
507
484
492
496
495
499
495
474
468
495
505
475
454
483
505
482
449
481
504
515
530
570
596
581
549
521
495
484
509
528
504
482
510
536
515
488
513
533
528
504
510
511
511
513
516
507
494
519
537
509
489
518
543
525
492
514
540
540
518
527
541
541
546
555
549
543
565
584
553
522
535
569
554
510
522
536
533
507
509
520
517
517
527
514
504
515
530
515
489
501
538
529
487
480
503
513
495
494
503
504
497
506
497
494
507
531
522
491
503
540
527
493
497
522
525
502
498
507
510
509
516
499
476
479
508
496
461
465
505
504
465
461
493
500
475
467
480
485
479
490
480
469
473
500
490
462
467
503
512
481
475
507
521
499
486
498
504
507
514
497
482
484
517
514
482
474
501
514
483
471
507
512
493
482
496
506
513
531
526
511
509
546
548
512
505
543
558
527
502
522
534
525
513
529
531
529
536
532
517
514
548
554
518
500
536
562
571
579
628
652
628
579
562
555
544
544
538
514
503
534
541
507
485
511
536
521
491
509
522
517
503
509
516
514
515
515
500
499
530
540
520
502
534
565
546
509
530
555
555
540
543
545
542
552
558
540
532
538
551
522
497
523
553
538
499
512
532
533
520
518
521
518
521
537
526
513
527
548
523
490
510
541
529
489
498
516
525
507
502
509
511
515
529
509
497
515
545
527
504
522
554
543
505
500
523
531
509
504
510
508
507
519
501
488
496
522
509
475
485
527
524
486
486
517
526
502
500
514
518
518
522
506
496
502
533
523
482
476
510
516
484
474
493
503
488
480
486
485
486
498
487
473
477
509
499
463
465
504
514
486
481
509
520
503
494
503
495
492
507
495
479
480
512
505
467
463
503
511
478
456
486
501
488
485
498
502
497
508
510
513
540
607
631
592
552
552
546
506
473
490
496
488
480
480
479
470
482
481
470
469
497
504
472
456
494
517
487
467
496
513
508
496
496
497
495
510
515
492
482
518
532
502
483
519
538
514
485
508
530
527
519
518
516
509
518
518
498
482
507
520
489
466
490
514
496
459
473
491
492
475
477
478
470
484
493
470
461
481
504
484
459
484
510
494
460
479
505
497
476
478
484
487
501
515
496
482
500
531
508
464
478
513
507
471
480
501
487
470
474
483
486
493
512
494
479
496
531
515
481
497
530
528
494
490
512
521
505
502
502
496
500
516
498
478
489
526
513
477
488
517
523
495
491
517
520
504
506
511
511
513
532
518
502
515
552
546
511
513
550
557
523
518
541
549
533
530
533
529
531
546
532
509
502
538
534
498
498
533
544
513
499
523
535
520
511
509
510
515
532
525
504
501
538
538
500
496
533
545
516
507
557
610
635
631
609
562
529
539
528
500
496
528
524
486
477
515
531
507
488
520
534
524
513
509
501
498
526
527
499
488
519
532
502
483
518
537
518
494
519
536
528
530
534
535
536
555
560
538
529
560
574
541
508
530
550
528
498
501
507
505
494
494
492
485
502
507
482
472
509
530
499
469
497
524
510
482
495
508
511
501
503
506
489
501
513
491
475
498
525
501
468
493
522
505
468
478
498
498
490
494
492
486
500
513
489
475
496
524
505
467
477
509
511
479
480
503
500
489
492
489
487
501
519
502
487
505
535
517
479
496
530
529
497
496
508
509
503
505
500
494
497
517
503
484
497
531
528
491
503
537
539
506
504
527
535
525
527
525
521
526
547
531
507
513
550
538
504
510
541
550
519
507
529
539
528
521
516
501
502
526
510
486
490
529
532
501
498
529
540
510
510
552
591
619
637
626
582
550
553
529
500
500
531
527
488
478
514
529
505
489
511
519
514
510
507
506
505
529
525
495
485
520
531
496
482
520
528
507
489
507
522
522
524
527
529
528
549
548
515
503
540
553
520
495
516
533
518
494
507
519
504
498
499
493
491
516
523
498
490
523
538
514
488
517
542
526
495
513
528
525
518
517
507
492
511
520
496
481
511
524
495
465
494
526
514
483
493
506
511
506
502
500
497
516
525
503
487
508
535
514
478
495
520
517
487
491
501
503
499
498
490
481
497
517
492
473
493
520
503
472
492
517
516
492
497
514
517
504
513
509
502
515
531
513
491
506
539
527
486
495
526
528
498
497
511
510
503
508
499
489
496
515
494
468
476
509
505
469
471
502
503
476
475
491
495
485
492
499
530
580
625
612
567
544
559
539
492
488
518
527
500
489
492
496
497
502
497
494
484
510
502
474
481
517
515
474
470
506
526
506
497
513
518
515
520
520
516
514
543
533
506
495
529
536
503
491
515
534
513
490
503
508
498
498
487
476
475
503
507
482
476
509
519
484
460
490
510
490
473
477
486
489
495
490
473
466
496
505
477
462
491
508
481
457
494
516
501
485
497
508
507
503
504
499
495
520
526
492
466
496
520
498
469
490
504
495
473
482
493
490
488
489
479
472
495
505
476
460
489
511
492
463
487
509
504
488
500
512
510
510
509
502
497
521
533
503
470
489
524
508
469
489
510
504
481
493
507
505
506
520
512
504
519
534
505
479
500
538
524
479
487
513
520
496
494
501
500
514
554
583
606
611
608
548
495
509
532
515
476
486
514
524
503
504
514
516
514
524
517
506
515
539
518
485
492
530
522
483
488
525
526
496
493
508
516
520
536
532
520
528
559
547
511
512
552
553
515
509
546
548
518
506
516
519
516
523
507
494
497
529
520
493
494
530
530
490
480
505
516
498
486
493
495
500
511
500
487
484
521
519
484
481
518
523
487
477
512
521
497
484
499
509
509
522
519
507
505
539
541
510
500
533
547
524
504
529
545
529
508
526
535
530
532
526
507
507
541
541
505
491
521
542
519
492
520
528
516
504
514
520
522
530
535
522
518
545
545
521
506
539
560
528
500
529
547
537
517
530
534
530
537
554
569
589
636
646
588
530
530
544
520
484
503
525
522
501
500
507
507
515
530
517
503
524
541
516
498
525
551
532
493
506
524
530
510
511
520
518
521
528
510
504
529
552
540
520
543
571
558
519
534
560
560
531
526
527
516
520
530
509
494
506
527
506
472
490
523
508
469
481
513
516
495
493
501
506
509
523
509
494
502
536
523
480
482
523
524
488
483
503
513
496
491
498
506
503
509
495
484
497
531
527
492
495
532
535
501
499
525
536
515
508
517
519
517
527
511
496
496
531
520
483
486
524
527
491
478
511
528
511
508
520
522
519
527
518
507
507
536
529
495
491
528
544
509
486
513
526
514
505
509
531
568
617
625
601
559
551
531
489
477
508
522
492
468
495
510
494
480
483
490
493
509
513
494
487
522
529
495
486
525
543
515
486
498
516
514
499
504
512
501
513
522
507
502
523
535
509
492
525
550
531
501
520
539
533
508
506
507
506
518
516
494
472
493
511
489
470
486
507
492
462
485
510
494
472
476
484
491
505
514
494
484
510
534
507
466
486
519
508
472
485
497
497
482
486
493
489
492
503
483
473
487
516
497
463
487
523
519
487
493
516
522
500
504
513
511
514
526
510
497
513
542
518
487
504
540
536
497
501
526
529
510
507
508
491
493
509
494
485
491
520
506
471
481
523
527
494
491
517
526
507
515
520
514
516
530
514
486
490
528
520
484
478
516
525
493
485
513
519
503
497
502
504
504
523
513
494
495
534
528
491
492
528
536
503
485
503
518
514
515
536
574
602
636
615
561
526
546
543
510
501
533
541
507
484
508
520
510
504
504
494
491
516
511
490
479
515
526
494
482
509
529
505
484
514
533
515
504
509
516
521
542
543
526
525
561
572
538
512
545
567
546
518
537
537
528
513
512
515
504
516
517
494
484
521
536
500
476
508
535
520
497
516
528
526
511
514
516
510
524
527
503
482
511
535
507
476
496
525
515
481
496
509
505
493
500
502
497
510
521
499
488
512
537
514
486
509
542
534
493
498
519
524
513
512
507
496
503
517
497
486
506
534
513
477
500
533
524
500
506
523
527
517
516
502
498
509
528
508
485
493
528
514
476
495
522
517
484
485
511
513
496
494
493
496
497
516
500
481
493
531
521
486
494
529
536
500
502
530
540
522
515
504
498
508
529
507
481
483
523
518
484
485
516
520
492
497
550
594
605
607
584
549
534
547
531
503
502
540
536
494
490
525
535
505
494
507
509
503
501
498
498
495
512
505
483
483
520
522
483
472
512
531
514
500
519
528
523
521
516
518
518
539
534
505
496
534
541
504
482
507
523
503
478
496
497
487
484
486
481
476
494
494
470
469
509
518
490
474
507
532
510
478
493
508
508
504
502
488
482
508
516
493
471
498
520
495
467
500
524
506
474
490
506
509
510
510
504
498
515
523
501
489
513
537
510
478
507
534
521
487
495
507
507
499
498
494
488
502
516
492
474
500
522
498
466
492
521
515
493
501
520
522
507
508
499
494
511
530
503
471
490
525
514
477
490
514
514
487
489
514
521
510
520
517
512
524
540
520
503
519
554
541
503
511
540
539
507
503
511
509
503
507
500
498
504
521
502
479
495
553
577
569
597
629
611
547
523
530
527
519
516
517
514
515
534
517
481
485
530
527
485
470
503
521
498
484
504
508
498
502
502
500
502
533
529
501
503
544
541
506
504
540
557
532
519
544
552
545
545
536
522
520
543
534
501
499
522
519
479
465
504
515
489
471
489
499
495
508
507
494
492
518
515
496
490
523
532
496
475
504
521
498
474
491
505
502
508
507
497
492
519
522
500
489
521
536
504
484
516
533
516
490
496
502
504
502
500
492
490
506
512
481
469
504
526
510
487
514
533
520
494
503
515
514
509
507
500
487
510
523
493
475
508
533
513
476
499
526
521
492
511
528
524
518
517
507
504
522
533
506
474
497
535
522
481
498
522
517
493
498
513
518
513
526
520
515
529
541
522
498
518
552
531
491
508
536
536
507
513
526
526
520
528
526
540
589
639
617
565
546
550
521
476
484
517
521
500
496
506
509
506
515
502
490
499
524
506
479
483
516
513
475
478
516
517
486
479
498
506
507
523
512
505
511
543
529
514
523
558
555
513
511
534
538
513
500
514
519
516
520
503
491
492
525
516
483
483
523
525
484
469
494
506
486
470
480
483
483
489
485
480
469
500
502
471
470
498
506
479
465
496
508
483
466
483
499
501
502
503
494
495
526
520
495
488
524
539
508
478
495
513
501
484
490
487
487
495
494
483
477
509
515
485
473
507
526
497
468
499
522
514
502
512
516
514
516
516
511
505
528
534
504
490
522
550
524
482
503
526
525
502
502
509
509
512
515
506
490
509
526
499
484
503
527
510
477
500
530
532
509
510
520
520
523
531
517
507
527
545
517
497
524
553
531
493
512
540
541
514
524
547
578
612
632
602
541
527
541
518
489
502
529
513
475
489
524
530
506
508
519
523
525
530
508
491
506
538
524
492
501
533
525
488
496
527
533
509
506
517
525
531
535
527
520
530
565
551
508
510
551
552
514
509
531
535
509
498
504
500
497
507
493
476
476
515
506
469
475
506
511
476
467
500
514
493
483
499
506
503
511
508
499
502
534
523
495
497
534
544
508
485
504
517
502
492
503
500
493
502
496
486
489
521
528
494
484
525
539
500
483
516
531
515
500
502
496
496
506
504
495
481
510
516
483
473
507
526
495
471
502
526
512
496
501
506
506
516
516
506
499
528
532
501
476
507
531
507
475
501
516
510
493
498
505
506
521
530
508
497
524
535
509
496
526
545
523
486
513
536
528
502
499
496
496
524
557
568
579
601
603
541
489
500
520
502
467
489
516
505
484
487
497
500
507
517
500
489
511
537
514
485
507
540
525
488
496
516
523
504
503
516
509
510
518
503
495
518
553
536
502
520
556
549
513
525
546
548
522
518
520
512
513
520
494
471
486
521
500
463
471
503
499
461
464
494
506
486
490
498
495
497
509
500
490
499
530
513
482
491
530
533
492
475
494
505
492
487
489
484
485
501
488
476
484
509
497
463
470
512
506
469
460
492
508
499
496
499
501
503
519
508
486
486
524
522
484
471
506
518
489
472
499
510
498
489
495
500
503
518
513
494
492
529
529
499
492
527
541
509
487
505
520
510
497
501
508
501
514
508
493
491
526
534
506
489
521
541
513
485
507
521
512
498
504
496
495
513
510
491
477
513
535
524
538
607
648
619
558
545
538
521
511
515
518
510
518
523
502
492
523
540
506
469
495
525
513
480
495
512
506
489
494
504
505
511
527
506
495
524
545
516
495
526
557
546
508
518
530
531
519
523
524
524
526
534
512
498
518
541
515
481
502
536
524
480
486
499
501
491
495
497
484
489
503
490
477
488
513
495
461
481
527
522
482
487
512
522
507
507
508
505
512
527
515
504
512
543
524
482
488
522
524
488
485
500
508
494
491
492
492
497
517
498
478
489
526
521
487
493
527
530
495
490
520
530
511
505
500
491
497
522
509
484
479
518
518
481
478
510
513
484
474
507
523
503
501
504
507
512
527
518
500
501
541
543
508
502
540
550
519
499
513
522
516
512
513
503
501
518
512
492
482
515
521
486
477
506
520
497
479
505
514
500
500
532
572
600
627
612
557
521
544
545
511
490
523
548
523
493
500
510
508
503
509
497
489
513
518
499
487
518
535
506
483
517
544
528
495
516
535
535
531
539
538
533
551
558
541
532
558
576
549
524
557
583
561
525
526
538
538
525
520
515
496
507
520
495
477
496
522
498
465
495
522
503
470
483
507
513
502
507
506
501
513
529
508
489
510
541
519
479
493
524
520
486
490
503
509
496
497
495
496
499
508
485
469
488
526
513
480
494
527
527
491
497
505
503
493
495
495
497
501
518
495
476
490
533
526
484
491
528
532
497
497
522
524
512
510
511
497
494
515
501
481
490
532
536
496
494
529
538
510
504
525
528
516
516
512
509
511
532
518
484
487
531
527
488
486
514
523
498
484
507
523
508
508
507
501
504
528
516
488
492
536
533
496
474
508
530
503
483
506
513
497
501
515
534
565
609
612
570
535
548
536
496
479
519
540
513
495
515
525
523
517
510
501
498
526
529
505
482
515
532
502
485
522
527
504
480
501
519
518
514
514
512
510
540
546
525
517
550
569
535
517
550
571
550
516
524
524
518
511
510
503
499
508
513
484
470
502
531
506
476
504
532
519
486
504
521
517
507
506
490
487
507
517
491
468
488
522
506
469
483
506
503
479
488
506
497
486
491
489
492
507
525
505
484
507
541
519
477
494
526
526
498
496
506
510
503
509
502
485
496
518
498
477
500
530
508
468
482
521
529
498
499
518
521
514
521
511
503
514
536
514
491
497
525
517
480
489
516
521
492
485
506
514
510
522
513
505
513
538
522
503
510
546
538
495
490
519
528
500
488
508
514
508
513
504
498
502
532
532
503
502
543
540
503
488
522
535
510
493
511
518
507
505
502
497
498
529
534
503
497
536
541
506
496
529
546
532
538
583
616
616
594
554
515
499
526
521
487
473
502
515
489
470
497
512
495
478
497
509
497
494
494
491
495
524
524
492
482
520
542
510
483
517
540
524
504
515
523
523
523
523
515
505
528
539
510
494
524
544
514
478
506
524
507
478
485
497
498
501
504
499
492
511
523
500
483
509
531
506
464
480
504
506
480
485
487
483
485
492
480
478
489
503
478
462
490
521
506
473
494
524
522
489
496
512
513
510
514
495
478
495
518
499
475
489
518
505
466
482
517
520
493
498
512
516
511
513
493
478
493
520
502
471
474
513
507
470
477
499
505
480
478
494
497
495
502
492
482
489
518
500
473
486
528
525
494
498
527
534
506
496
511
515
508
515
501
487
495
532
517
482
486
522
524
486
480
513
520
495
486
507
514
509
523
518
510
511
540
533
497
496
539
548
511
485
512
529
512
501
504
508
508
515
507
499
493
523
521
489
489
535
556
552
572
625
632
582
529
520
520
519
520
525
516
507
535
534
495
478
518
537
504
480
500
522
510
489
500
508
502
505
510
503
499
522
526
498
488
524
547
523
498
528
554
545
518
535
548
550
553
550
525
515
540
549
518
495
513
535
509
474
501
524
506
485
493
503
507
510
511
501
494
517
534
504
472
495
526
509
473
501
516
505
482
489
504
502
496
500
488
483
502
523
498
470
496
533
525
492
506
531
531
503
500
510
511
512
519
502
493
503
524
502
475
497
526
517
479
490
520
525
504
510
522
519
520
528
507
490
504
532
513
480
485
527
524
481
486
517
519
493
496
510
511
508
525
516
505
510
541
528
499
507
549
548
503
502
534
545
521
508
518
521
520
529
518
501
493
527
518
486
491
528
522
484
476
511
528
514
502
511
513
510
525
517
505
507
540
531
491
483
521
530
496
480
517
549
562
578
601
595
559
544
521
498
495
530
529
494
487
526
538
504
478
504
521
505
487
498
510
499
503
500
489
489
516
519
487
475
516
538
510
495
527
543
534
516
528
541
543
549
547
538
533
566
570
528
502
534
554
526
491
510
523
516
494
493
491
488
497
502
485
473
499
516
482
461
491
513
494
461
484
508
504
494
503
510
504
510
516
489
473
498
519
490
464
489
520
505
469
487
511
514
497
503
506
503
507
516
501
493
513
534
510
480
505
542
523
480
488
512
517
499
499
489
483
491
506
491
477
490
511
489
457
481
524
515
477
485
514
523
500
497
502
503
507
522
505
471
476
514
505
473
478
505
502
469
475
510
515
483
478
490
498
508
522
506
492
498
534
524
487
480
515
523
491
491
515
515
498
495
506
502
505
522
507
494
500
529
519
480
482
524
534
501
495
526
535
522
527
559
592
612
622
587
537
505
534
534
493
485
518
522
494
477
505
521
509
507
517
522
518
525
522
507
507
544
541
505
496
535
552
524
500
514
526
519
513
518
521
508
519
519
504
507
546
550
521
505
544
566
533
505
529
541
529
512
509
502
498
511
513
493
482
504
515
484
463
501
527
501
468
491
510
509
502
503
505
501
514
518
497
485
511
529
499
472
492
516
502
470
491
504
502
487
488
494
495
508
523
501
489
512
534
513
490
516
542
525
487
495
516
517
499
500
502
492
503
515
493
480
498
524
505
471
493
529
515
475
490
519
523
504
508
516
519
526
533
513
501
516
549
532
487
493
532
530
494
497
521
517
498
498
502
509
516
531
519
502
513
549
531
488
495
533
537
504
498
519
519
500
501
506
507
511
536
524
505
513
551
536
504
506
542
550
512
496
523
534
516
511
516
501
496
515
501
487
493
533
557
554
584
643
653
592
533
537
539
527
518
510
498
496
516
505
492
482
514
515
480
474
506
519
492
471
500
511
500
494
495
497
503
525
527
503
498
538
544
507
495
534
552
528
502
518
536
532
522
523
522
512
528
529
501
490
525
536
510
487
512
532
508
481
506
525
517
497
498
489
485
505
509
483
476
501
513
488
466
494
524
512
487
507
522
518
503
506
509
508
524
527
496
480
502
527
501
468
497
523
512
481
496
514
515
504
509
513
507
516
527
508
492
516
546
518
485
509
539
530
492
494
505
507
494
496
499
497
496
510
489
477
499
532
514
480
499
532
530
495
488
502
509
499
502
499
487
493
514
494
478
498
528
513
474
488
528
528
494
499
522
527
514
512
512
509
515
531
514
488
487
526
518
479
488
526
526
489
483
510
515
501
497
495
495
497
512
500
481
485
528
525
494
497
531
538
506
503
549
598
621
623
602
559
532
542
523
495
495
531
524
488
484
521
534
510
500
526
534
522
519
523
521
522
544
532
498
492
533
542
503
487
518
535
512
493
522
524
515
513
515
520
525
543
543
516
510
550
563
527
507
541
557
531
503
507
513
509
502
500
501
493
507
509
482
474
509
517
481
460
496
522
506
488
506
518
514
503
515
514
505
521
524
501
492
522
538
501
473
504
534
517
480
487
496
497
492
496
493
479
495
507
486
472
492
516
492
460
488
525
518
488
498
514
520
511
515
509
503
517
529
510
498
516
544
520
480
490
516
512
480
485
497
498
491
491
488
483
487
506
486
467
486
517
501
466
487
517
507
475
478
504
515
504
509
510
508
518
538
521
498
510
547
538
499
511
544
546
512
509
535
539
524
522
511
505
507
526
508
484
490
525
522
482
483
518
526
510
534
587
616
605
586
546
523
521
537
520
493
495
538
533
487
485
522
534
506
491
507
502
494
497
496
495
494
523
521
493
491
536
539
495
485
524
545
520
498
512
522
520
523
524
525
512
536
534
509
507
545
550
515
495
527
546
520
496
514
519
513
510
504
495
492
516
512
480
463
497
514
483
459
486
505
485
463
481
496
486
480
478
473
473
497
516
489
471
502
523
491
465
504
530
508
479
493
498
496
492
492
490
473
494
510
485
466
499
512
485
456
487
515
507
477
491
509
512
504
503
502
501
523
533
500
478
504
535
516
477
493
520
517
488
499
499
493
490
495
490
482
494
513
490
470
495
531
512
471
489
521
523
494
498
515
516
510
513
501
490
503
526
504
476
483
525
518
477
491
528
525
497
495
512
519
515
524
518
512
520
542
529
502
516
555
540
495
493
520
531
507
499
513
518
504
511
511
525
569
623
620
582
567
577
545
504
501
536
545
511
495
497
502
502
514
507
499
491
517
510
482
489
523
519
482
477
520
534
510
495
512
522
522
526
525
520
521
552
549
514
508
550
558
523
509
533
546
526
507
522
531
524
523
513
501
497
529
529
497
487
521
532
498
477
509
525
506
481
498
496
488
491
490
484
472
503
508
474
465
495
516
492
464
495
520
508
489
506
517
511
515
517
504
500
526
527
497
486
518
542
515
478
496
515
509
489
497
500
496
498
500
491
491
515
526
497
479
513
543
518
488
517
542
536
511
513
513
513
514
521
510
502
516
530
503
483
515
549
529
497
516
543
544
512
509
519
518
520
530
516
499
513
534
510
488
508
535
520
482
497
530
535
507
504
516
517
521
532
519
510
524
545
521
494
508
544
534
493
493
522
528
502
499
511
505
508
519
502
495
501
529
515
482
493
538
534
498
506
544
563
566
593
615
616
590
563
525
505
503
534
523
485
488
530
536
505
500
530
541
513
511
529
535
530
532
522
515
520
552
538
496
487
528
538
506
491
515
532
515
507
523
519
518
529
523
515
525
556
550
515
507
548
562
523
505
536
548
524
505
513
505
501
507
502
493
494
515
512
478
468
514
529
498
472
504
523
516
504
509
513
511
514
518
511
504
529
532
496
476
507
527
498
467
495
507
502
486
488
497
495
496
498
484
479
509
528
501
484
516
536
514
483
508
530
521
495
504
514
514
519
520
499
481
506
527
501
474
493
524
505
470
492
522
509
481
486
497
500
497
499
484
478
503
530
511
484
503
535
525
492
505
525
526
501
500
508
513
516
518
498
486
507
534
508
467
483
522
513
477
484
502
508
488
487
497
493
493
506
492
482
504
536
516
480
493
532
527
497
499
526
533
509
502
515
517
512
520
504
495
511
570
588
572
580
595
558
495
480
510
515
497
491
497
499
500
517
509
499
504
537
523
485
491
532
536
498
486
508
519
505
498
505
510
503
515
507
496
499
538
539
509
509
551
560
525
507
541
560
542
527
528
529
527
536
527
504
491
525
523
489
479
513
519
484
462
495
517
508
496
502
504
505
516
513
501
497
529
529
500
491
524
539
508
476
502
518
508
490
496
492
490
503
500
481
478
502
511
480
460
496
522
501
476
506
524
513
494
495
496
494
504
507
486
482
503
519
489
462
496
523
509
476
495
517
516
500
506
514
510
515
522
505
495
522
538
507
482
509
540
527
486
498
521
522
501
503
501
492
501
511
493
483
508
531
507
473
496
536
525
482
498
525
528
506
512
505
497
505
517
500
482
491
526
509
473
492
527
518
476
484
516
517
497
493
500
503
509
521
516
505
511
543
524
488
502
540
535
495
494
509
518
503
499
508
519
546
600
608
588
575
578
549
504
509
543
541
501
490
521
532
510
500
500
495
497
520
508
487
491
525
520
484
483
523
533
510
497
530
543
525
522
528
532
531
549
541
520
519
556
555
526
517
552
562
529
509
521
526
514
502
502
501
492
501
492
472
469
510
518
484
470
504
521
494
468
490
503
496
483
489
486
477
493
492
472
471
503
508
472
454
492
518
505
475
497
513
505
495
508
511
501
514
511
500
496
525
532
496
466
496
528
508
470
486
499
497
486
489
481
475
491
498
480
474
496
512
485
459
495
522
503
469
488
509
513
502
509
509
505
516
525
504
477
495
524
501
468
498
526
509
475
491
517
521
499
499
503
502
509
525
504
487
510
538
517
481
501
538
528
496
503
529
535
513
514
524
523
531
541
516
497
514
549
533
489
495
531
533
497
495
508
513
499
499
501
495
499
516
498
482
496
534
526
486
499
554
592
594
613
631
606
552
524
510
499
501
520
500
478
484
521
513
472
474
515
528
497
488
516
525
512
510
517
519
518
535
520
499
504
544
537
496
487
527
547
518
499
525
537
528
528
528
526
517
535
526
508
511
549
546
507
493
531
544
507
486
512
523
511
508
507
496
485
504
504
482
472
502
510
478
463
506
520
488
465
491
510
508
501
507
508
505
524
527
497
479
517
531
498
480
511
523
501
475
497
518
510
494
496
499
500
510
513
486
479
514
533
504
492
525
548
529
492
506
518
515
503
506
501
493
516
529
500
488
518
540
514
479
507
540
527
499
519
539
535
519
518
510
508
525
535
509
488
502
536
517
477
498
529
514
480
489
507
510
500
501
502
503
516
530
513
494
515
549
524
479
494
529
529
499
502
515
516
504
508
510
506
513
536
518
495
512
548
530
492
507
543
543
503
496
503
513
514
542
574
594
599
603
556
509
507
542
531
494
497
533
540
500
497
522
528
518
518
516
514
515
534
517
500
504
541
532
488
490
519
525
496
482
508
517
508
509
506
507
514
546
544
517
517
558
556
520
522
560
565
531
504
522
525
511
506
501
499
488
511
505
476
473
514
520
485
469
503
523
498
479
506
519
510
503
500
491
488
514
510
483
476
515
526
494
472
503
523
501
479
499
509
505
498
500
495
496
520
518
486
472
507
528
495
460
486
512
496
472
491
504
495
484
486
487
484
504
518
495
479
510
537
502
473
504
532
521
487
494
507
508
499
499
493
480
494
508
483
468
499
522
499
463
487
517
515
482
491
509
512
504
504
494
480
494
513
488
470
491
516
495
459
482
518
516
483
485
505
511
503
517
509
499
509
529
514
490
502
537
517
485
502
536
534
497
488
499
513
526
558
584
583
584
583
534
490
494
529
519
479
483
514
518
493
489
508
518
510
509
506
502
510
534
514
477
481
525
522
486
482
510
521
492
485
507
507
501
507
502
502
508
533
520
493
499
543
553
516
505
540
551
519
502
521
523
512
510
499
491
483
506
501
472
471
509
514
476
461
501
517
499
479
496
507
501
509
510
506
503
527
521
488
485
527
535
497
471
503
524
510
486
503
504
498
498
499
492
487
514
517
486
480
518
533
498
476
510
536
517
484
497
502
500
500
502
492
483
503
510
487
477
507
523
495
464
496
527
516
485
498
511
517
519
520
510
503
525
532
514
501
525
549
522
486
506
524
517
490
497
512
509
501
499
492
489
507
520
491
470
499
531
513
479
502
529
523
503
508
524
526
515
516
506
499
518
541
515
479
496
536
525
486
493
517
520
494
494
517
513
502
511
501
498
510
523
498
474
493
536
554
548
585
640
642
596
556
542
532
523
532
519
510
518
538
515
485
496
540
532
487
487
524
535
508
501
514
518
515
520
513
511
503
529
518
489
499
548
552
513
508
544
561
534
528
547
551
546
550
540
527
522
551
541
508
494
528
530
488
477
500
513
494
476
491
500
498
505
497
489
488
521
524
496
491
527
535
495
484
523
539
513
489
503
501
500
505
499
489
476
504
511
481
471
510
520
490
467
504
526
509
489
502
514
511
508
508
497
492
521
527
498
484
518
536
506
471
493
517
507
482
488
501
503
501
501
483
475
507
518
489
472
493
520
503
472
499
528
518
499
510
520
518
517
518
507
503
529
541
510
476
498
537
518
478
489
510
510
488
498
505
497
497
504
498
491
501
521
497
475
500
540
525
481
496
526
532
505
507
524
526
523
527
525
521
533
552
522
490
501
536
524
483
493
515
523
498
494
509
504
498
516
522
545
595
644
623
568
547
562
550
509
509
540
544
510
504
520
524
521
529
514
496
495
526
516
484
489
521
518
480
481
523
524
493
485
503
515
517
525
515
507
514
551
547
519
520
563
564
526
517
539
551
530
514
526
534
524
526
515
502
502
535
536
496
489
526
533
503
493
524
536
514
495
513
519
512
519
512
503
490
523
522
486
477
509
523
492
467
501
522
505
494
515
521
513
517
515
510
508
535
533
495
476
506
532
505
471
504
514
501
485
495
502
499
497
494
486
486
515
523
500
484
521
546
515
483
511
531
525
503
501
501
501
504
510
497
483
504
521
492
473
511
544
521
488
509
534
531
505
511
519
515
513
526
514
499
519
538
508
476
495
528
513
474
486
512
517
490
493
504
508
503
509
490
485
508
531
518
492
507
540
527
486
503
532
532
502
500
509
510
515
522
500
496
539
606
610
571
558
561
531
479
488
519
522
500
498
509
512
510
515
505
499
507
541
523
483
487
524
523
484
483
512
515
492
486
502
510
508
526
517
505
514
551
537
507
513
553
557
520
508
527
538
518
510
521
513
505
515
502
487
495
522
505
467
466
511
519
483
467
500
515
496
488
500
501
500
509
503
494
493
527
524
487
480
523
538
499
473
495
512
501
485
492
501
491
497
497
486
483
516
526
496
485
521
536
502
484
516
532
522
497
504
512
511
518
515
484
474
508
520
487
465
499
521
498
467
497
512
500
480
488
499
491
501
505
485
481
508
526
497
472
503
531
507
479
510
534
526
501
507
518
517
524
524
504
484
507
530
502
472
499
526
504
469
490
513
512
501
506
513
513
514
528
510
497
520
543
514
473
491
529
519
483
497
519
515
489
491
501
498
493
503
487
476
499
529
514
482
499
539
532
504
533
594
634
623
613
591
553
533
536
517
505
513
540
518
479
479
520
520
477
476
508
509
488
485
492
495
501
520
513
501
506
538
526
489
500
541
540
500
489
518
533
523
518
522
528
524
539
530
513
518
557
549
515
518
554
553
511
489
512
525
506
493
498
495
491
509
501
483
485
515
510
475
472
515
520
485
466
503
523
505
495
502
507
511
525
511
498
499
535
537
500
484
519
539
508
483
504
515
507
496
502
505
502
513
505
489
486
527
539
507
488
522
543
512
494
524
534
525
507
507
507
504
516
519
492
478
516
535
499
471
500
530
515
481
503
516
511
494
501
509
505
508
511
489
486
519
534
511
486
514
544
531
499
515
535
531
511
518
520
516
525
530
508
501
525
544
515
480
502
531
517
479
494
519
523
514
521
518
513
519
535
519
500
514
543
522
488
510
546
529
487
487
510
520
501
495
499
495
501
533
548
566
598
626
583
515
507
532
527
493
493
519
528
503
505
511
509
514
525
511
495
505
541
523
484
484
518
525
490
487
514
518
501
500
506
511
512
528
510
497
507
550
547
507
509
550
560
524
519
549
556
539
527
523
518
516
528
513
491
485
521
518
475
470
505
511
483
468
495
501
489
482
489
495
494
511
502
482
486
525
526
493
480
516
533
505
490
515
526
513
503
507
493
491
510
505
483
473
511
517
482
466
510
524
488
461
490
507
504
498
506
505
502
518
520
493
481
517
531
495
466
497
526
505
472
498
508
506
495
497
501
499
516
528
505
492
522
537
512
490
520
543
523
485
502
521
523
507
504
495
489
510
521
492
479
500
519
492
466
497
529
519
487
503
523
522
503
506
513
511
525
535
503
483
506
542
520
474
481
515
511
476
484
500
503
488
491
488
480
493
509
488
474
499
533
541
539
582
626
600
533
510
522
525
507
505
504
509
518
529
508
488
505
545
527
489
504
542
542
509
501
511
519
508
510
514
510
508
527
513
494
509
553
544
506
509
551
562
528
521
549
559
545
544
536
522
525
546
527
504
495
528
524
484
480
509
521
489
474
502
502
494
493
492
492
486
506
500
484
490
517
512
475
473
517
533
506
493
520
531
526
518
520
519
516
539
530
494
482
522
531
494
483
527
533
503
479
507
528
506
494
496
499
500
525
536
509
499
535
545
510
485
518
542
518
488
506
520
516
503
503
503
502
517
517
491
483
520
540
519
491
517
542
523
490
511
526
521
506
506
498
494
515
520
494
481
516
537
510
475
504
535
523
500
516
528
526
514
516
504
497
515
527
500
485
502
534
508
473
499
534
532
504
511
529
531
517
520
520
514
524
541
517
502
513
539
518
479
498
532
527
488
490
515
523
511
517
513
508
520
544
539
555
607
658
632
558
527
541
535
499
497
517
513
500
502
497
495
499
515
496
474
490
531
528
489
498
538
542
508
501
528
537
525
520
515
502
508
538
527
501
509
548
538
501
503
541
554
527
520
544
554
544
536
521
510
516
538
517
481
475
517
518
479
472
502
511
483
468
494
501
486
483
483
482
487
515
509
486
485
527
530
490
480
518
534
505
481
499
502
496
495
494
491
483
506
504
478
474
512
520
481
460
500
520
495
471
491
507
505
502
509
511
507
525
526
492
476
513
531
498
469
502
520
506
479
495
512
508
498
501
496
493
515
524
496
487
522
542
513
486
521
551
533
497
518
534
532
523
524
514
498
515
526
503
489
503
528
505
472
503
538
533
507
515
529
536
526
527
527
522
534
547
520
489
507
543
522
486
501
523
523
493
498
517
517
506
507
502
499
514
535
508
485
503
541
523
489
510
541
539
502
500
515
513
511
538
566
592
613
623
568
509
507
544
540
500
502
535
537
502
505
529
530
517
517
509
496
501
524
505
479
490
527
519
478
476
516
529
509
506
526
530
522
524
515
512
520
545
531
503
502
547
548
508
505
535
545
520
505
520
526
518
516
510
503
500
526
523
495
494
537
535
491
469
500
524
501
476
498
499
490
493
494
489
483
508
504
479
477
517
526
491
470
507
533
510
485
510
522
518
515
506
496
494
522
522
494
475
506
526
495
471
510
521
499
474
492
508
510
508
503
495
492
521
528
504
490
522
541
509
489
524
545
526
492
503
512
509
503
504
499
484
505
521
493
475
504
525
502
468
495
524
516
496
506
524
524
514
511
499
496
519
533
503
478
498
531
516
479
499
528
516
483
490
507
512
506
512
511
510
529
544
514
482
501
544
527
480
499
521
518
492
497
513
514
510
520
512
505
516
545
541
549
599
656
629
548
520
533
537
506
496
514
507
495
500
495
491
495
521
501
478
492
526
520
478
481
517
530
499
497
518
521
517
524
512
493
497
529
519
491
496
533
532
492
491
535
545
511
497
517
527
522
538
527
512
510
538
526
492
488
528
529
486
471
499
512
484
470
490
501
495
495
487
481
484
517
516
487
481
522
532
496
477
504
518
498
479
494
508
507
506
502
494
493
528
525
494
489
526
539
505
482
503
518
502
480
499
510
498
498
497
488
488
520
531
497
482
516
539
518
485
515
536
521
496
505
514
511
511
510
502
492
511
523
490
474
504
529
504
468
497
527
518
492
499
510
511
509
511
508
506
527
539
507
485
517
548
524
484
509
525
520
496
502
515
513
504
511
502
495
513
528
501
479
510
547
529
491
508
540
542
507
514
530
531
527
536
515
495
511
536
513
485
498
527
513
473
487
528
526
489
487
511
542
582
627
633
613
590
579
540
499
507
546
533
485
485
511
517
491
485
500
511
501
504
492
486
500
532
518
480
488
533
530
496
501
535
540
514
503
518
525
523
529
516
505
510
551
542
503
502
541
547
510
498
524
534
510
494
511
520
503
503
494
484
489
521
522
488
483
523
536
497
484
520
535
509
490
504
498
493
501
494
486
484
511
509
475
467
514
528
492
468
501
521
508
499
510
512
510
517
523
510
499
529
530
496
485
528
547
510
474
494
516
508
485
494
500
493
498
503
492
487
515
533
507
489
521
544
516
483
515
540
532
503
501
504
506
514
517
501
495
509
521
492
476
508
537
518
482
508
536
530
501
505
515
514
522
527
500
486
511
538
512
483
511
538
517
477
504
535
531
515
518
529
528
527
530
519
511
530
556
528
489
506
545
535
495
507
531
533
506
506
519
518
510
516
501
494
515
540
518
484
501
544
543
509
521
569
609
614
634
636
602
564
551
530
502
511
546
525
487
493
532
531
488
486
521
533
513
513
525
524
521
528
524
517
519
548
532
492
493
540
548
503
489
519
535
520
512
517
518
521
534
527
511
506
544
537
498
502
533
532
494
476
507
522
495
477
487
496
497
512
505
495
495
530
525
489
475
513
525
491
472
499
517
502
486
495
506
493
503
502
487
486
522
529
496
483
521
540
516
491
524
541
524
508
520
526
525
529
521
499
486
518
531
498
477
507
527
499
473
502
516
503
482
489
502
508
516
523
506
495
527
541
507
492
525
550
526
495
524
542
535
508
512
515
502
509
516
497
489
514
530
497
473
503
542
524
492
515
539
537
512
519
533
529
530
532
518
511
531
552
521
486
500
539
531
490
499
528
520
497
501
510
511
516
527
511
505
521
546
522
494
515
554
540
492
496
525
534
526
550
578
601
610
607
559
518
506
534
515
478
493
533
517
472
473
510
526
502
498
515
518
519
531
516
490
495
534
524
490
494
526
530
495
488
524
541
525
520
530
534
538
552
536
523
528
566
556
519
521
545
551
513
497
527
528
503
490
498
501
498
509
496
481
483
513
511
473
468
515
521
484
467
504
522
505
493
502
510
509
521
520
503
500
539
545
512
495
532
549
519
487
504
519
510
495
500
509
503
505
501
485
485
525
529
501
485
522
544
524
500
522
537
526
507
507
500
495
510
513
491
491
514
521
488
467
506
538
520
487
510
529
525
508
514
519
515
521
526
504
490
518
539
507
474
506
543
524
481
492
516
522
501
500
499
493
504
516
499
488
509
535
509
478
504
538
521
488
505
528
533
509
503
509
507
515
526
497
476
496
530
509
476
498
521
509
469
482
513
514
493
493
499
500
509
521
506
491
502
538
520
488
500
541
546
529
572
621
631
593
554
528
503
500
513
495
478
485
513
501
463
468
509
504
468
466
499
505
481
476
487
498
500
509
499
486
498
540
536
499
500
542
552
519
517
549
561
541
532
536
525
525
544
533
516
524
549
539
497
491
532
539
500
476
506
522
503
495
503
505
503
517
511
497
497
533
531
492
466
502
530
503
473
498
508
503
495
498
494
489
505
504
490
489
520
531
494
479
520
541
514
482
507
526
524
509
505
505
502
520
525
498
486
511
523
492
474
514
540
518
486
511
535
531
511
509
504
501
519
531
507
479
508
533
506
482
514
529
507
472
494
525
529
507
515
519
519
531
535
509
497
521
547
523
488
497
530
521
486
502
521
516
496
497
503
507
516
524
501
486
510
545
531
492
510
547
539
503
518
541
544
522
519
522
520
524
536
512
495
495
531
515
474
490
531
526
490
488
515
521
503
500
510
514
522
557
576
599
627
651
601
526
512
543
548
506
491
514
515
497
495
498
498
504
526
514
497
501
539
528
491
499
542
546
505
491
513
519
509
507
506
505
505
519
509
493
496
539
537
508
507
551
563
528
515
544
554
539
522
513
505
504
520
512
484
468
507
510
474
463
496
506
477
453
482
503
497
487
495
495
494
514
506
475
460
499
511
480
464
491
507
482
459
490
508
500
487
488
490
491
509
518
493
483
518
534
500
463
493
521
502
470
487
505
502
491
493
495
487
500
506
482
472
499
518
487
456
492
524
508
484
502
519
517
498
499
505
503
514
522
491
471
500
529
502
467
492
519
508
473
485
506
503
485
490
494
489
494
506
485
472
499
533
513
479
500
539
530
493
503
527
531
510
513
515
509
518
532
510
482
494
530
512
470
477
513
515
476
478
498
505
492
490
492
494
497
517
518
532
577
635
622
563
541
554
547
505
494
519
530
513
505
501
493
494
517
501
478
484
518
508
469
476
519
527
497
493
525
534
519
514
512
512
516
543
528
500
498
543
547
509
504
549
556
519
503
538
553
538
533
529
528
529
547
536
509
502
542
550
512
493
529
544
514
490
514
525
516
507
514
516
513
530
524
501
497
538
543
501
471
506
531
505
481
503
505
500
493
499
505
492
508
512
487
481
522
540
502
480
516
546
528
498
518
532
528
513
515
510
502
522
526
500
494
516
534
505
474
509
540
517
480
500
522
526
515
523
527
523
536
542
514
494
516
542
515
480
509
534
519
482
497
519
520
512
514
510
507
523
537
521
503
523
554
525
492
523
556
543
504
503
525
534
516
515
508
497
510
534
511
484
498
536
524
485
501
532
528
490
493
521
528
503
501
501
503
517
538
517
501
516
555
541
502
519
588
633
621
616
601
564
526
517
514
501
508
529
507
484
494
527
515
471
476
523
527
495
492
519
524
513
521
524
524
525
545
530
498
497
548
549
503
497
531
549
525
511
538
553
546
546
548
548
550
574
567
541
536
572
565
517
502
540
557
526
498
512
518
511
508
507
495
488
517
516
488
490
527
527
490
474
517
540
518
495
517
528
520
517
520
515
512
533
532
496
477
515
532
495
471
509
526
499
469
489
509
508
502
504
500
495
516
533
504
486
517
536
505
481
513
536
518
482
494
513
515
503
497
490
480
503
516
485
469
500
522
492
461
492
519
502
464
481
505
504
494
496
492
488
513
528
501
483
507
542
522
487
509
539
530
492
493
506
508
497
499
487
481
496
515
491
471
490
526
510
470
487
526
525
495
497
515
521
507
508
509
509
519
534
511
477
490
533
518
474
486
528
530
524
557
609
627
594
567
534
514
517
538
522
499
511
552
534
491
481
518
531
495
485
509
511
500
506
502
497
505
528
524
501
504
544
538
503
502
544
557
522
501
517
528
528
530
523
515
511
541
536
511
514
541
536
493
485
526
536
506
486
506
516
516
516
511
505
501
530
524
495
490
531
536
493
483
522
537
509
481
497
504
499
499
499
487
482
515
519
485
477
511
517
483
460
499
526
509
485
505
520
517
506
511
507
505
529
529
497
470
503
528
504
471
497
515
500
474
494
508
504
499
500
495
497
521
527
501
490
524
550
516
479
492
517
511
485
496
510
500
489
496
495
486
497
511
486
469
502
537
515
476
498
530
528
491
494
512
515
506
509
506
486
498
519
495
476
490
524
508
469
487
520
516
479
480
503
510
503
515
506
498
511
531
505
473
494
554
577
565
593
615
576
509
492
507
514
512
519
511
504
510
534
512
480
491
535
525
479
489
518
520
489
483
507
516
500
501
495
495
505
537
529
500
503
547
544
509
511
548
560
530
515
536
549
544
540
525
508
511
544
528
495
480
519
521
484
473
506
515
485
471
495
504
499
507
506
499
502
531
522
484
476
523
535
495
465
499
521
501
481
504
502
495
495
494
490
481
507
508
479
472
510
523
488
462
500
522
508
484
497
510
509
506
505
507
504
525
527
493
474
507
527
497
467
492
515
506
479
489
499
492
492
497
488
485
510
529
502
487
519
540
522
487
516
541
528
495
496
506
509
508
510
498
484
500
516
490
471
500
523
496
457
484
522
516
483
491
508
513
507
507
497
491
510
528
509
491
509
544
521
480
493
517
518
488
488
506
508
501
503
492
488
496
518
492
467
488
529
515
476
488
523
526
506
514
556
595
623
641
612
567
545
552
519
485
493
529
521
478
479
513
516
485
480
505
509
494
500
493
493
498
519
504
477
487
530
536
494
489
529
541
524
518
531
536
532
540
538
537
539
566
555
514
509
555
555
512
499
537
542
512
493
509
516
511
515
515
505
500
529
520
486
471
513
523
482
464
501
516
492
469
487
503
490
488
490
484
485
508
503
474
470
510
525
501
478
512
539
520
490
498
507
510
513
507
492
487
519
525
494
482
508
526
496
469
506
532
516
487
499
514
519
519
518
515
509
536
545
510
491
524
548
519
479
501
525
516
488
496
516
511
502
502
495
492
519
542
517
493
521
552
531
492
515
541
537
503
505
520
514
505
510
499
498
508
522
496
475
498
529
516
478
496
530
529
502
506
520
522
518
528
519
513
528
545
527
501
519
560
544
501
516
547
548
514
510
511
509
508
516
506
499
500
526
507
479
495
534
522
484
512
586
624
612
592
581
553
526
526
517
508
509
539
522
497
507
546
540
494
484
514
530
504
491
497
499
500
510
498
484
484
519
512
481
482
520
525
488
480
524
535
507
492
513
526
528
540
538
528
529
561
554
512
492
530
542
502
477
505
521
496
476
490
495
489
490
486
479
481
507
507
474
464
507
524
494
478
513
532
513
485
494
502
503
504
501
491
481
514
518
484
471
512
534
519
489
516
536
522
496
520
533
527
523
520
499
486
519
531
494
477
507
532
507
470
499
528
518
492
505
517
513
517
524
512
503
524
536
505
484
514
551
527
480
503
529
528
499
494
501
502
503
509
492
480
501
524
496
474
499
529
509
468
488
521
525
496
494
504
507
508
520
512
501
517
540
513
476
497
539
524
479
492
520
524
494
493
511
511
504
518
505
492
501
522
505
477
490
529
518
473
480
523
533
501
506
528
550
580
619
628
620
600
594
554
499
494
537
535
491
488
517
523
499
491
508
513
504
509
498
492
499
538
535
500
500
543
545
505
501
539
550
525
508
527
536
532
536
528
511
506
550
550
513
511
544
558
526
504
540
554
524
501
518
524
515
518
508
499
498
529
531
496
485
525
546
515
487
519
538
522
501
516
523
520
520
520
513
510
538
538
503
492
532
550
515
480
495
513
505
488
497
500
496
499
504
493
486
516
531
499
478
518
544
517
486
511
535
527
503
510
519
516
511
522
506
493
518
532
505
482
508
538
515
472
496
526
524
490
486
489
492
499
505
483
466
490
517
492
467
493
520
501
461
484
517
519
492
500
513
512
515
520
501
491
509
537
511
477
485
523
512
469
485
520
508
477
477
496
504
500
510
495
484
498
533
523
487
499
540
535
497
505
537
543
511
502
511
505
500
510
496
481
483
519
505
470
480
520
513
474
472
511
538
548
585
632
643
622
595
554
524
523
554
534
487
480
526
534
490
472
501
516
496
487
501
500
495
503
499
491
493
526
525
488
484
532
548
511
496
531
550
533
514
519
526
527
536
533
519
508
543
547
512
498
534
549
513
484
512
522
508
485
490
499
492
494
492
477
475
510
521
490
479
518
536
506
467
495
519
508
487
496
499
495
506
508
491
482
506
522
491
470
507
534
510
475
505
530
522
493
507
522
523
524
523
498
484
515
538
508
480
504
530
508
472
498
524
521
497
501
513
518
520
533
516
504
530
554
519
489
515
552
535
494
503
527
532
505
511
515
508
511
521
506
486
507
539
513
481
501
534
524
481
493
525
529
502
504
520
521
521
529
522
518
529
557
532
497
511
555
549
499
500
521
526
504
501
512
514
507
516
502
498
510
531
515
478
491
541
539
501
495
528
538
519
509
523
529
525
537
531
525
559
632
636
585
557
560
545
500
486
524
542
521
510
519
521
519
532
528
511
508
543
540
507
499
537
548
509
481
511
534
518
497
509
514
509
520
513
500
503
531
531
501
494
535
555
534
513
546
558
544
521
537
544
544
544
534
503
490
528
538
497
480
508
527
499
470
504
512
499
481
493
508
497
499
500
487
485
512
524
489
468
506
528
502
466
493
519
515
502
510
520
515
519
531
511
501
528
541
505
483
514
545
528
487
492
515
514
492
497
493
488
496
504
488
488
503
522
494
466
497
534
508
465
481
514
518
497
498
505
506
510
521
514
503
516
544
518
488
509
551
535
484
491
523
534
507
498
500
501
505
518
503
487
490
525
509
477
495
525
518
477
481
518
528
507
499
510
512
517
532
521
508
514
548
530
489
491
534
543
515
530
593
622
593
556
538
512
506
519
504
491
482
517
513
476
476
521
528
493
480
517
527
505
495
506
515
517
532
525
510
510
549
550
510
498
542
558
525
503
528
541
531
519
532
545
545
553
546
527
527
565
565
529
510
543
557
524
488
513
528
512
493
498
498
491
498
497
482
480
517
530
495
473
510
535
503
462
485
506
500
479
483
484
482
492
493
470
461
492
508
476
453
483
513
489
450
476
501
500
485
487
493
489
493
504
492
480
501
519
485
464
495
524
501
457
473
491
494
470
470
477
479
476
483
462
452
478
504
487
460
485
520
501
467
486
516
518
488
485
495
496
500
511
484
463
481
515
495
459
465
503
497
455
465
493
498
472
473
484
499
521
569
583
580
579
587
541
495
500
539
530
489
475
499
510
489
482
495
490
490
502
486
476
477
515
503
464
471
517
526
498
490
520
531
509
501
514
520
520
533
521
499
507
556
551
510
514
548
556
521
500
533
549
525
515
528
527
518
527
514
503
501
532
522
483
476
516
530
489
458
478
487
476
465
471
480
469
473
468
457
458
497
502
471
461
505
525
491
458
479
499
494
481
487
487
483
496
502
486
480
516
530
497
480
523
548
517
484
515
540
533
506
505
501
498
511
522
502
486
511
528
500
480
513
542
530
495
520
547
545
523
527
530
528
537
539
511
495
524
549
519
485
506
539
522
482
500
520
520
498
502
511
515
519
527
504
494
520
564
568
566
615
659
625
555
543
555
548
521
526
536
533
530
537
515
483
495
537
518
479
486
525
524
483
488
520
524
496
494
509
515
516
530
513
501
517
553
541
505
517
561
564
523
520
551
561
540
534
533
531
532
545
526
509
503
535
519
479
482
531
530
485
474
509
521
504
503
510
508
509
520
508
492
491
533
527
481
472
521
536
498
475
501
521
508
494
504
496
496
513
508
493
492
519
513
477
474
518
534
503
483
514
532
521
501
499
498
499
518
515
485
478
520
527
493
484
514
529
500
474
511
520
505
490
497
506
497
508
508
485
481
520
539
509
486
520
545
519
493
525
545
532
510
509
508
507
520
522
493
479
513
537
505
477
503
532
513
479
502
528
520
495
501
514
516
524
535
515
502
532
551
519
493
521
553
534
496
517
538
536
510
514
517
520
554
599
601
589
590
580
526
481
502
546
532
492
505
532
535
509
519
529
523
526
534
511
489
502
540
521
482
498
537
532
487
491
524
531
504
501
510
516
515
526
512
503
517
557
548
514
528
570
565
532
529
555
562
539
531
535
533
528
537
522
504
508
544
528
483
484
519
522
485
473
510
526
502
493
499
500
502
527
519
497
497
536
537
500
492
531
542
505
492
526
537
516
508
517
519
519
530
517
481
475
518
521
483
472
499
515
486
467
499
505
492
483
491
498
504
517
509
490
485
528
532
495
482
523
543
509
490
522
536
524
500
515
523
514
523
520
496
483
516
531
496
474
515
534
506
469
494
515
511
498
509
515
507
515
521
504
496
527
540
505
469
500
536
525
501
543
582
589
564
543
521
501
504
510
489
482
505
519
488
457
492
529
512
472
486
513
514
503
509
510
506
515
527
505
490
511
542
518
479
506
548
535
493
496
520
533
515
513
516
510
520
540
520
505
514
543
522
485
501
528
518
473
476
506
519
496
498
505
503
509
521
499
479
490
528
510
471
476
506
509
471
470
503
513
497
497
500
501
507
530
513
491
494
534
535
491
489
528
533
493
494
528
535
511
498
498
496
498
514
501
475
473
518
518
476
471
505
516
486
471
500
509
491
481
488
498
497
504
494
476
482
526
523
494
483
524
542
512
495
521
532
520
506
510
501
497
513
510
488
490
526
524
486
470
513
540
521
488
513
530
519
516
524
520
512
525
524
501
493
526
539
501
476
517
552
541
529
570
594
587
548
524
508
495
508
515
495
484
502
520
490
465
500
531
517
485
504
524
528
511
512
513
509
523
538
514
499
523
547
518
480
500
533
522
483
499
519
521
502
504
512
502
514
531
508
490
504
535
514
473
485
515
504
461
473
506
499
474
473
479
487
486
493
475
462
483
513
495
458
472
514
512
485
490
514
520
498
497
491
495
502
514
495
478
481
520
505
462
472
516
518
494
490
514
523
501
503
512
512
510
523
503
482
492
535
521
477
478
511
520
484
470
504
505
486
482
493
496
490
501
488
475
483
526
524
492
488
530
548
511
488
508
518
513
508
511
503
502
521
516
502
492
529
533
497
490
525
540
512
487
518
538
528
519
518
520
520
537
537
519
511
548
554
514
506
555
591
589
581
618
631
597
548
533
528
513
529
533
505
491
515
530
501
478
513
539
523
490
513
536
530
518
520
520
518
533
535
507
496
529
550
521
485
507
542
527
493
515
531
527
511
514
520
523
529
535
511
500
527
548
515
477
502
538
526
493
506
525
525
502
510
520
517
521
529
502
477
497
537
512
470
482
519
518
479
482
504
506
489
493
499
501
495
505
487
475
494
530
514
476
491
531
536
495
481
499
509
497
497
497
491
492
510
492
479
492
528
517
474
483
529
532
498
494
523
533
517
509
505
497
501
525
511
491
497
528
516
474
479
526
535
504
495
524
535
521
509
514
517
519
537
529
495
488
532
531
493
487
517
529
496
475
507
529
517
516
519
520
522
539
530
509
502
542
544
505
485
522
545
516
487
515
524
507
496
500
501
505
523
521
495
488
527
538
507
486
522
545
516
498
543
587
612
612
613
598
559
546
537
501
484
520
541
504
474
499
526
510
476
495
511
504
488
493
504
504
513
531
508
497
528
547
519
492
523
554
540
498
506
524
527
514
518
521
510
521
536
515
505
529
549
520
483
510
545
524
476
487
513
517
500
505
511
507
515
524
508
495
509
543
516
469
482
525
521
477
482
499
507
491
490
492
483
490
509
494
478
490
530
513
474
489
528
530
498
493
517
530
511
503
509
509
516
533
509
487
487
524
514
475
484
528
528
490
481
513
524
506
499
509
513
518
537
516
493
489
531
529
489
484
524
531
495
483
518
529
513
518
522
525
527
541
527
501
502
547
550
506
490
526
539
509
488
519
524
509
502
506
515
507
520
517
496
497
539
545
505
492
534
558
532
510
540
553
540
527
533
535
528
545
542
507
497
541
552
509
486
521
547
539
537
600
645
637
607
576
545
524
538
537
524
514
541
553
517
474
504
540
523
482
500
513
516
504
506
508
500
512
521
500
491
520
545
528
497
528
560
544
506
514
535
546
535
533
536
523
537
556
532
513
535
558
531
493
519
552
537
496
511
537
539
515
513
517
514
520
535
511
479
494
531
514
474
487
524
515
474
478
510
521
500
507
509
511
518
530
507
476
487
530
519
476
480
512
518
484
481
509
515
492
487
490
498
503
524
506
485
493
540
526
488
495
535
541
506
491
509
518
507
505
502
496
499
520
506
486
489
530
525
478
476
519
534
511
493
519
531
519
510
526
529
526
543
527
504
492
527
528
487
476
518
538
509
482
506
521
515
508
506
508
520
571
604
607
608
624
589
520
484
514
536
506
477
501
521
512
505
505
505
503
518
524
496
486
527
540
513
489
526
551
524
490
516
536
531
513
509
508
507
529
538
510
492
528
552
525
491
520
549
534
496
504
519
519
501
501
487
479
498
507
481
457
481
511
487
453
477
505
497
464
484
511
503
481
485
487
490
508
522
503
489
510
548
525
490
514
545
536
499
514
536
532
510
506
502
496
504
515
493
476
486
524
509
465
481
508
507
474
475
501
508
492
490
494
494
497
522
503
483
496
532
514
479
487
524
530
492
487
515
526
509
507
500
495
501
520
501
483
484
521
509
468
468
516
529
499
486
511
519
508
508
510
507
510
529
529
529
562
628
620
552
501
520
529
490
469
494
495
485
479
478
483
478
496
492
471
469
510
513
474
467
509
530
506
482
507
525
519
515
516
515
515
538
534
501
495
538
550
514
493
531
555
531
499
526
538
525
512
511
509
507
529
531
497
485
517
533
502
476
508
530
507
473
485
500
496
483
484
476
475
497
504
478
456
486
520
493
457
487
508
496
465
480
504
505
497
502
505
502
511
524
498
482
509
534
511
475
501
534
523
489
500
518
522
505
506
501
487
500
515
489
475
490
522
500
464
487
529
527
492
496
517
525
509
512
521
517
524
537
513
490
495
532
519
479
493
537
531
486
486
514
526
513
516
513
511
517
530
522
503
510
548
528
492
504
552
579
576
597
629
623
575
532
502
488
495
520
503
474
477
509
501
464
472
517
511
474
464
499
514
505
503
503
505
511
536
523
499
502
545
544
503
484
523
542
513
492
525
530
515
512
513
519
525
536
523
500
501
545
552
513
499
534
549
518
492
504
512
507
499
497
496
491
512
509
485
480
524
539
504
484
520
542
518
488
505
519
516
503
506
507
494
511
514
487
479
520
536
507
482
515
541
521
486
512
532
528
510
513
502
491
511
518
491
481
502
522
496
463
495
531
519
481
492
513
518
510
517
513
506
520
527
508
499
521
544
516
479
495
528
517
479
488
512
509
494
495
495
497
502
517
493
477
501
535
523
482
503
538
531
489
502
529
534
514
505
501
499
508
533
525
528
576
644
629
563
532
529
518
478
475
499
503
486
482
483
480
486
509
489
468
484
517
505
468
476
517
518
480
477
509
518
511
509
520
525
534
552
530
508
505
551
550
507
504
540
554
522
512
540
548
532
524
522
524
525
540
525
497
498
546
549
507
494
531
548
518
499
526
537
525
517
512
508
507
530
523
493
490
527
529
489
474
511
527
503
477
499
515
509
515
517
510
506
526
523
501
499
536
539
500
483
522
545
517
482
499
507
501
497
499
495
494
506
508
485
475
511
532
500
475
513
542
520
481
496
517
520
505
500
488
486
508
520
498
473
498
528
501
471
506
525
511
476
491
516
513
498
498
499
498
514
527
501
486
512
545
528
495
517
544
536
500
514
538
539
519
515
504
496
516
533
505
485
514
588
610
586
592
595
560
504
498
518
517
501
503
503
507
506
518
497
480
497
538
535
492
499
537
540
507
513
536
543
527
522
523
514
518
536
518
497
516
552
538
496
504
549
559
534
530
550
557
545
541
535
527
530
548
525
497
500
536
526
480
475
518
532
507
489
510
521
514
517
520
514
512
531
516
488
483
521
523
483
468
504
526
497
473
497
505
497
494
493
494
493
517
521
498
493
529
534
496
484
524
542
513
483
506
521
521
510
498
486
484
513
517
482
464
504
521
489
465
493
517
497
469
492
512
505
493
495
498
503
521
527
497
489
526
552
537
507
532
561
545
516
534
552
549
531
526
523
524
543
547
517
495
527
571
579
577
621
647
603
532
522
532
534
523
528
530
529
543
549
517
485
512
552
529
485
499
535
537
505
512
527
523
511
515
520
516
519
537
516
502
530
574
555
517
534
573
581
544
534
546
556
549
551
543
535
543
562
539
506
518
556
541
497
507
537
544
509
500
526
534
527
535
527
525
532
551
535
514
523
562
550
508
513
554
561
522
504
524
532
529
530
513
502
509
537
527
495
487
534
536
496
489
523
538
509
493
516
522
516
513
510
512
513
530
526
500
500
547
547
516
506
541
559
529
500
514
532
532
523
514
501
504
534
530
495
481
524
537
507
490
531
545
518
495
523
542
542
539
542
542
544
568
564
530
520
561
581
543
508
534
561
543
515
548
578
608
633
643
630
594
566
551
518
509
545
571
540
510
542
570
557
520
536
555
555
542
538
532
521
536
550
524
510
534
553
527
494
524
559
552
518
525
548
554
546
549
554
554
568
578
548
530
544
574
551
510
531
568
557
514
513
532
536
525
522
514
510
523
539
515
495
497
533
516
474
489
531
536
505
501
520
531
519
517
503
500
511
532
513
490
483
520
509
472
482
524
521
482
475
503
520
505
503
497
499
507
530
511
486
497
543
534
506
511
545
553
517
507
535
541
528
525
516
513
522
547
528
497
498
542
544
498
485
515
523
492
476
507
513
491
488
488
495
502
527
523
492
490
535
542
502
485
523
541
516
491
511
523
516
508
498
490
491
517
515
487
503
571
613
596
573
584
565
524
487
503
518
515
509
513
508
502
522
519
495
489
527
542
503
463
491
524
509
472
486
498
499
496
499
491
476
497
510
487
473
499
530
506
475
511
533
519
482
500
525
518
505
503
501
499
514
530
505
484
506
534
505
467
492
520
514
480
489
497
497
487
485
480
470
480
501
476
454
481
505
481
445
468
504
506
473
480
505
512
497
494
493
493
507
526
496
467
486
528
512
467
476
514
519
481
476
491
494
483
487
481
474
481
504
487
465
481
521
515
473
475
517
527
492
493
517
521
511
510
515
521
526
540
519
483
486
536
532
486
477
510
525
497
483
504
510
497
494
493
495
499
526
520
495
497
545
550
523
541
602
633
590
532
527
521
502
497
496
495
493
516
521
496
492
532
537
498
487
526
550
522
488
503
513
512
511
506
496
491
520
525
499
495
532
537
500
480
524
553
531
506
532
547
546
539
533
527
524
546
548
508
481
515
537
502
470
495
519
501
468
486
509
499
486
489
487
486
507
526
501
480
509
535
507
467
486
517
510
474
483
497
501
492
492
488
489
504
509
479
464
496
530
513
480
502
531
525
492
508
529
527
514
515
517
517
533
542
509
478
494
536
516
470
489
513
511
477
484
509
510
492
492
493
495
511
536
519
494
509
554
538
496
505
539
546
509
496
508
513
506
508
501
497
495
515
496
475
498
559
578
572
596
628
614
547
516
530
534
521
523
507
495
501
525
512
480
487
533
528
482
478
518
528
493
477
502
515
508
524
519
509
511
537
530
496
493
541
546
503
495
532
549
521
500
524
540
525
519
514
514
516
543
545
510
495
533
537
500
489
525
540
511
480
495
504
501
498
494
489
483
507
508
474
466
506
514
480
459
498
521
509
483
503
518
512
503
510
507
503
531
534
495
471
505
533
504
468
494
515
501
469
489
504
495
488
489
489
488
501
510
481
466
496
522
497
461
490
521
515
487
501
519
520
510
510
501
499
518
530
502
469
498
536
509
470
490
518
519
489
493
507
507
500
509
506
502
513
525
497
476
504
544
518
483
501
538
539
497
491
507
514
510
514
508
503
529
583
600
598
612
612
556
491
494
536
543
503
493
512
519
516
518
513
511
519
538
518
489
499
542
532
488
482
519
530
499
488
510
515
506
505
498
500
510
544
536
509
516
560
556
514
501
538
552
523
505
521
523
515
513
502
497
491
516
504
469
470
517
526
492
475
509
527
498
479
510
522
513
506
493
480
482
514
508
474
472
505
515
482
462
500
524
501
486
507
514
511
504
500
485
484
515
514
480
471
505
522
488
460
497
515
493
470
489
502
505
502
509
504
496
519
530
500
486
522
544
516
483
512
540
527
490
494
502
504
499
500
496
489
503
514
484
473
507
534
518
481
506
536
531
491
497
515
520
514
510
500
491
506
522
493
479
502
528
508
468
494
533
525
492
495
514
524
516
518
505
499
515
535
513
491
511
547
527
481
498
535
533
496
487
500
523
548
584
597
587
571
565
520
484
497
535
524
482
488
520
525
491
490
516
525
516
513
501
482
494
524
501
474
481
519
514
477
481
518
531
508
505
526
531
526
530
526
521
530
560
540
500
500
551
554
507
489
522
537
507
489
498
496
492
495
491
488
486
506
497
468
470
519
527
482
466
505
525
503
487
507
519
513
508
500
490
490
520
515
479
468
512
525
489
467
491
512
500
476
489
492
489
495
496
488
491
505
504
475
473
515
521
486
460
501
533
519
495
511
526
525
522
529
520
515
539
543
520
509
538
559
524
484
514
544
532
495
504
515
511
507
506
500
495
509
523
499
482
512
540
511
478
507
539
531
497
503
521
530
525
525
520
514
533
546
520
498
522
557
532
497
524
551
549
511
510
521
522
514
516
505
495
504
525
497
471
494
536
527
487
496
530
534
500
514
562
598
615
619
586
543
527
536
508
480
482
523
516
472
476
506
514
485
480
499
503
494
497
490
493
504
528
515
490
504
550
540
493
489
529
544
517
505
526
524
518
524
522
520
523
555
548
517
525
572
565
519
506
544
560
525
501
523
530
522
519
505
484
480
515
509
476
466
508
517
478
460
492
511
490
467
490
490
488
491
488
483
487
513
510
484
479
516
533
495
481
523
543
517
486
503
501
499
500
495
489
476
505
514
482
469
507
530
503
473
509
534
516
485
496
516
519
510
507
493
483
511
525
493
476
497
522
499
466
495
525
516
492
499
519
522
510
509
499
497
522
530
502
481
508
540
519
475
490
519
519
488
492
502
500
495
499
491
492
512
527
499
476
503
545
525
488
508
539
541
509
510
525
528
522
525
506
494
506
529
505
475
486
533
520
474
487
521
524
491
487
516
549
580
616
620
603
577
567
528
496
510
550
534
495
498
533
544
509
493
501
507
508
514
500
491
491
522
507
480
488
525
522
482
481
527
540
516
506
525
533
534
545
539
531
533
564
560
528
525
570
570
525
511
552
566
528
501
508
517
514
511
501
490
481
512
513
479
471
507
518
482
463
496
512
489
468
487
504
496
490
488
484
484
512
508
474
468
506
517
483
462
501
525
509
490
509
522
518
513
511
507
504
534
534
501
492
528
552
518
476
499
524
513
483
498
517
505
496
497
492
492
519
527
505
489
521
553
525
479
498
525
524
493
496
503
505
502
504
498
496
509
521
492
473
508
542
516
475
498
530
532
511
514
527
529
523
532
527
517
533
549
518
490
517
557
532
486
499
530
534
498
496
514
515
503
509
499
492
503
529
508
482
499
541
525
489
500
539
545
508
506
540
582
611
617
586
540
521
539
519
490
496
531
524
480
484
526
530
501
491
509
519
518
529
518
510
513
548
530
503
512
555
552
506
505
547
557
525
508
526
539
537
539
532
515
515
556
548
510
515
549
553
511
494
532
538
506
484
506
518
512
511
511
504
505
534
524
485
476
518
535
498
471
505
515
492
472
492
503
502
506
503
495
498
527
532
500
486
527
545
503
482
521
543
523
495
507
504
499
499
500
492
483
506
513
482
467
511
540
513
478
506
533
524
499
508
520
518
511
516
512
503
525
532
497
475
501
530
504
466
486
513
514
483
490
498
498
499
502
491
479
497
518
489
471
502
533
515
474
498
532
529
503
506
519
521
520
521
510
504
520
543
513
478
498
540
523
477
487
519
521
490
488
510
509
503
505
495
488
494
521
498
469
487
526
512
469
479
517
524
494
486
507
518
514
529
550
578
618
651
608
537
516
547
539
495
482
512
524
496
488
498
500
498
506
495
481
490
527
513
479
485
524
523
480
475
517
530
497
485
509
519
519
525
523
522
524
555
547
519
521
571
578
532
509
545
566
545
521
522
525
521
521
514
498
488
519
519
482
473
503
514
483
460
500
528
514
494
506
516
515
515
511
502
499
530
531
493
483
515
530
499
467
502
525
507
479
492
506
503
498
499
489
487
518
530
504
488
520
546
514
470
495
526
517
486
491
505
500
494
493
484
484
502
511
486
470
502
537
515
481
508
533
530
497
498
516
524
519
514
500
497
522
541
508
470
491
532
513
474
486
508
513
483
487
508
514
505
511
499
496
518
543
514
489
511
550
536
490
485
518
527
497
494
510
508
504
511
501
498
500
523
503
477
496
542
544
505
505
541
548
516
510
528
534
526
526
514
514
520
544
522
485
490
530
528
491
511
587
627
607
581
564
541
521
523
522
514
511
540
526
500
506
551
549
502
479
517
540
515
491
510
511
504
511
509
501
504
524
514
486
487
531
545
508
494
535
561
540
510
520
526
531
538
530
517
506
538
541
509
495
521
534
500
472
509
524
495
467
485
500
506
514
513
502
497
527
533
504
489
525
544
510
478
497
518
506
479
489
508
500
488
489
484
484
510
525
493
474
512
532
510
475
503
532
524
504
513
530
531
518
525
515
510
535
547
517
494
519
553
533
486
499
529
529
499
496
499
502
500
506
493
489
501
517
493
471
494
527
506
464
484
523
513
480
486
506
512
510
517
511
507
518
541
514
483
501
550
536
485
493
517
524
494
487
505
516
506
510
504
501
509
536
515
486
499
543
532
495
498
535
548
515
497
499
507
510
517
504
496
494
521
506
476
485
523
522
479
474
520
536
506
494
516
523
521
528
523
529
566
629
626
569
528
536
529
485
473
518
521
487
468
491
510
497
491
487
485
491
523
531
499
489
531
543
509
479
513
538
520
495
505
520
524
524
519
510
503
538
542
507
500
545
562
535
504
536
562
544
521
540
548
539
530
522
497
488
521
527
489
466
496
527
499
459
483
505
499
474
489
496
489
488
492
488
480
496
509
480
462
492
526
502
461
489
523
519
490
494
511
514
514
521
511
505
521
537
504
481
512
549
525
482
489
520
526
496
495
500
502
502
512
502
494
503
525
497
475
501
536
513
467
484
528
533
499
502
520
524
518
525
505
486
502
533
512
484
490
528
520
474
482
528
540
511
506
521
529
523
523
508
500
509
538
523
489
483
527
527
486
490
520
530
502
491
512
518
513
516
507
502
509
544
543
503
502
547
546
504
488
523
538
509
489
506
507
502
506
499
497
507
559
582
571
578
609
593
528
498
532
549
520
492
506
508
502
503
497
490
485
517
516
483
476
509
530
497
470
507
524
509
488
506
521
522
529
530
521
521
548
559
528
512
554
576
536
515
552
575
560
527
529
531
529
524
522
508
494
511
518
483
465
506
534
501
463
490
521
517
487
494
508
508
502
503
493
484
508
524
492
461
485
521
501
461
476
509
511
478
482
495
495
492
496
484
480
496
512
487
468
493
534
524
482
502
535
532
498
493
511
518
518
522
501
486
504
535
510
477
486
530
519
476
491
527
519
485
483
508
518
511
520
511
505
515
545
529
497
507
550
542
495
489
526
539
506
494
514
515
508
512
502
499
506
532
514
480
490
540
545
509
498
533
548
522
517
534
536
529
527
514
498
506
542
526
488
475
522
531
486
468
500
518
498
484
505
512
497
497
495
490
495
525
542
543
574
643
653
581
526
541
552
529
496
504
504
500
503
503
491
483
514
520
488
475
515
534
503
474
510
536
514
484
500
516
520
526
532
520
515
542
549
513
503
542
564
535
498
528
554
543
516
527
542
542
541
537
520
511
534
549
516
490
516
545
516
472
503
533
522
487
492
510
517
510
509
482
467
494
519
492
467
484
515
494
459
484
514
517
492
495
514
522
516
516
499
492
515
537
505
476
486
523
508
469
486
523
518
479
481
504
509
507
513
508
503
519
544
515
474
488
537
529
480
483
511
518
488
486
508
514
498
499
493
494
506
534
520
490
498
545
541
490
484
523
533
506
491
500
505
503
510
502
499
500
523
509
477
487
538
536
495
486
524
540
517
496
512
521
517
523
513
504
494
520
515
482
487
539
542
506
488
528
553
527
499
523
535
529
532
525
517
515
543
537
502
493
533
548
511
482
535
599
616
609
620
596
553
527
514
506
494
513
516
489
480
520
535
505
477
516
541
523
493
506
523
529
525
519
507
503
535
544
509
478
510
543
516
483
510
531
526
498
509
533
528
520
524
518
517
543
561
525
498
528
558
544
500
515
540
534
496
508
529
527
514
511
489
483
505
524
493
468
479
516
504
461
479
502
500
473
477
496
504
497
502
491
489
509
531
509
484
504
550
536
491
501
536
539
507
497
503
508
504
510
500
491
492
519
500
472
491
529
516
470
476
519
526
490
478
501
511
510
522
520
514
514
543
526
505
516
555
545
499
478
509
531
504
484
506
502
500
506
498
492
496
532
530
499
499
540
542
503
487
529
546
515
492
501
512
514
517
507
499
487
515
515
484
478
519
525
485
463
510
529
499
473
495
515
515
518
520
513
513
545
551
518
501
540
559
527
498
529
552
533
500
506
517
521
517
513
505
501
524
532
502
507
578
629
619
579
583
576
534
493
507
525
524
516
519
515
510
537
545
511
495
526
558
530
486
502
530
527
497
507
520
512
507
516
513
506
518
535
510
492
525
567
551
506
530
565
570
543
550
567
568
559
557
553
549
558
571
536
499
513
552
530
483
492
519
525
495
493
512
507
501
510
501
494
503
522
497
474
498
542
529
479
486
530
534
507
500
516
522
515
522
510
499
508
536
523
497
502
545
538
492
500
543
552
512
493
514
524
519
519
507
488
487
520
513
480
480
519
518
474
469
515
519
482
464
489
504
506
507
502
497
497
531
526
495
493
537
541
500
491
531
544
515
488
511
524
516
510
501
488
476
512
512
473
466
501
513
479
454
496
522
502
480
500
516
510
503
511
504
502
529
529
498
490
526
550
514
477
500
525
512
485
499
514
502
495
494
487
490
516
529
500
479
515
544
510
467
490
520
515
490
514
555
584
600
602
573
528
513
517
483
464
495
520
491
451
479
516
515
482
487
505
511
502
508
508
501
517
534
506
474
494
535
518
473
494
522
524
489
490
518
512
507
517
507
508
517
541
523
502
524
566
553
514
525
559
557
516
510
528
530
525
524
500
479
487
523
504
473
487
518
504
459
469
516
525
494
488
511
523
515
514
511
506
510
542
525
489
481
526
528
484
478
519
519
487
472
499
516
501
497
491
490
499
533
523
496
496
541
543
504
480
515
537
510
490
514
509
503
506
503
499
501
526
515
481
479
528
543
509
484
524
547
523
498
513
522
521
520
517
505
503
532
532
499
474
517
544
510
479
516
535
515
485
504
524
526
528
531
527
522
544
550
513
500
540
562
530
495
515
543
538
505
514
531
528
515
516
511
509
535
552
524
510
543
572
544
510
540
570
558
517
520
538
541
533
533
515
501
522
540
514
493
506
549
553
551
612
666
652
586
554
554
557
547
548
535
528
542
561
540
516
531
570
549
501
507
542
549
513
509
515
525
525
527
519
517
527
549
523
498
517
564
557
520
534
572
578
545
537
551
557
551
557
548
538
541
569
549
516
523
554
540
492
488
531
539
500
484
514
527
519
523
519
518
521
547
534
493
492
542
551
508
485
517
536
514
499
520
525
516
517
516
518
524
553
552
520
516
564
574
537
518
557
576
555
538
556
565
560
554
553
548
545
576
574
542
527
569
588
551
526
559
582
565
535
557
573
567
563
568
566
563
592
599
571
559
595
616
583
548
584
619
604
564
573
579
583
580
578
570
568
581
585
558
547
582
599
567
530
569
605
588
554
563
584
591
590
593
580
572
592
609
582
556
581
617
588
538
555
588
584
548
552
574
574
563
564
558
558
559
578
552
527
554
598
585
544
557
593
597
563
568
592
599
588
596
607
636
681
708
662
584
570
606
598
550
555
585
584
549
546
572
581
571
580
571
566
579
608
585
555
562
612
609
563
562
600
610
575
569
593
596
587
587
582
581
583
610
592
565
569
624
623
572
559
587
606
578
556
576
588
570
565
561
557
555
574
563
529
531
578
580
541
523
563
585
557
529
535
547
546
546
542
533
526
548
546
516
517
559
559
517
495
541
566
543
510
530
547
544
545
547
537
532
556
558
519
498
538
560
525
489
530
546
519
486
506
525
530
522
522
516
510
535
550
524
503
532
556
523
487
520
547
532
492
511
534
538
522
513
503
498
524
535
498
473
501
537
509
472
485
509
508
473
483
509
502
482
482
480
480
503
525
497
474
499
541
519
479
499
537
534
491
494
499
498
488
492
488
485
492
511
489
469
492
527
512
466
479
523
529
503
500
520
526
514
513
507
510
522
541
520
482
505
586
612
588
595
600
574
519
500
521
527
513
513
509
506
515
542
536
512
521
569
561
519
514
558
576
538
513
523
535
532
537
534
532
521
548
543
520
525
566
573
532
522
570
596
569
543
569
583
584
584
578
573
569
594
583
543
529
571
581
540
517
551
573
549
522
544
555
551
548
547
546
550
580
586
554
545
589
607
571
544
585
611
590
560
581
604
603
590
591
585
580
605
609
580
562
597
621
586
556
586
614
597
556
559
578
580
565
563
541
535
561
574
544
510
540
576
555
514
529
562
557
523
533
558
550
529
532
533
542
550
557
529
510
543
577
553
511
534
574
571
541
546
565
569
556
552
548
544
554
574
545
520
542
589
567
511
514
556
567
528
519
540
541
528
528
528
526
517
536
515
495
511
556
547
501
506
548
559
520
513
540
546
535
534
528
524
528
547
524
491
497
542
533
483
478
516
528
490
473
501
500
490
498
515
550
583
625
605
548
511
535
533
488
475
519
533
494
466
483
500
496
490
488
482
471
495
495
467
462
503
501
462
449
495
518
494
467
494
516
517
508
506
511
514
543
538
497
486
532
549
513
479
511
541
519
483
507
508
496
484
483
478
482
498
501
468
454
496
518
484
447
483
515
497
457
478
499
495
483
480
480
479
497
505
483
471
501
533
498
465
497
529
516
472
482
489
488
475
475
478
464
476
491
464
448
479
514
487
442
467
506
507
475
477
498
504
487
488
483
477
492
508
480
457
482
525
500
448
451
495
503
461
461
480
487
475
480
481
478
487
505
486
466
480
523
508
458
466
515
524
485
477
503
513
499
499
499
497
502
520
504
483
487
531
519
471
477
521
528
486
468
484
488
485
485
479
480
483
507
494
464
470
519
517
474
474
520
532
493
470
499
515
503
494
485
475
478
512
504
469
463
497
504
464
449
498
515
494
496
572
625
623
596
559
527
511
530
522
492
483
524
536
494
466
493
518
494
467
492
502
490
479
483
488
494
519
532
505
494
537
560
524
498
539
568
546
511
535
556
557
543
545
547
530
545
555
527
512
548
565
525
487
518
556
544
503
515
534
534
516
518
524
516
529
538
505
485
505
537
512
468
496
519
511
471
480
505
503
490
495
493
489
494
511
489
476
503
538
516
472
495
539
537
497
502
528
536
525
522
506
501
514
539
514
475
486
534
522
474
490
528
522
483
479
515
518
495
495
496
499
510
536
527
500
506
551
539
493
497
538
549
505
488
514
521
511
505
502
504
510
525
502
478
487
537
536
494
495
538
550
511
488
513
513
500
496
498
500
511
539
529
500
497
547
550
499
481
525
548
514
486
512
515
507
500
500
506
496
515
513
483
480
530
544
504
480
523
549
524
490
496
512
512
503
506
513
506
546
585
588
595
615
594
526
484
521
547
529
490
509
530
530
524
530
527
523
540
544
517
509
546
566
530
492
517
552
536
494
510
537
530
513
518
519
518
539
557
537
521
546
578
557
517
546
585
571
527
539
563
567
543
535
518
508
522
537
511
483
496
535
513
473
496
533
520
476
481
510
527
509
509
510
507
520
537
515
493
509
550
530
483
494
534
536
493
487
515
520
499
499
499
502
506
518
495
473
489
538
527
488
491
536
545
501
489
507
517
505
503
503
492
497
520
503
483
476
515
518
476
472
509
524
494
477
509
527
512
509
507
513
514
533
521
494
497
539
540
495
482
529
549
516
487
514
530
522
509
513
512
510
533
525
494
492
541
546
498
478
510
538
511
476
506
530
510
492
499
507
506
527
533
506
497
535
548
509
489
530
562
536
491
519
539
539
522
525
546
579
629
642
598
551
552
559
517
482
509
536
517
475
495
515
513
497
497
497
499
516
535
509
490
519
551
519
476
504
544
531
486
502
522
526
505
507
513
513
516
534
514
498
527
555
532
490
514
559
551
514
519
548
554
524
516
511
512
522
533
505
485
486
523
508
467
482
514
509
467
471
505
517
496
498
503
506
514
529
507
495
506
551
532
478
471
513
523
483
475
509
510
485
479
486
493
497
521
510
486
489
539
530
475
459
504
525
487
465
498
501
482
475
484
490
491
513
503
482
484
528
525
483
475
520
540
505
478
508
524
511
501
497
489
491
512
505
483
469
509
515
476
461
502
520
486
459
492
517
504
494
498
499
498
520
518
502
496
535
545
503
466
507
539
512
473
489
508
510
494
495
488
487
508
522
496
478
510
533
500
472
512
542
514
474
499
531
536
511
519
525
524
541
549
526
513
540
569
540
517
580
654
663
613
587
572
549
519
514
517
512
518
528
497
483
509
549
530
490
512
554
543
495
502
525
530
508
505
514
509
515
529
509
495
518
553
531
486
505
554
552
515
518
550
560
538
532
538
546
549
563
539
517
531
572
545
496
501
546
548
505
484
502
516
499
498
493
490
498
520
506
474
481
532
520
474
475
511
524
484
469
506
515
495
489
499
504
502
520
506
491
495
537
535
494
487
535
554
513
478
505
523
516
504
506
495
493
512
507
490
488
520
522
482
471
521
541
506
475
506
528
525
514
519
524
521
538
531
506
500
541
549
505
474
514
541
513
474
505
528
510
487
492
501
503
522
538
511
497
534
547
519
491
523
555
529
486
496
520
522
499
501
509
499
510
516
494
486
506
530
503
474
507
541
526
485
507
536
538
519
521
526
529
539
544
518
501
527
561
528
482
506
552
541
507
529
587
630
620
608
588
543
524
528
505
493
502
537
511
468
489
532
530
485
487
523
534
514
517
530
530
529
542
517
488
502
546
531
487
487
530
543
505
498
538
543
521
519
529
539
532
545
532
522
536
582
566
517
517
566
574
522
501
534
548
530
515
509
501
505
525
514
490
480
525
526
483
476
520
535
497
474
509
523
509
496
503
513
507
517
514
497
497
536
531
492
481
530
554
522
497
529
553
543
518
519
522
526
542
536
500
490
535
547
507
487
522
539
508
474
512
538
528
515
519
524
525
536
534
504
497
536
555
514
481
521
555
530
487
515
533
522
497
502
514
517
527
533
509
498
533
564
533
494
524
562
551
508
523
546
545
517
513
521
523
528
536
510
481
503
538
511
470
489
535
530
487
499
521
527
504
507
515
516
513
521
501
491
518
556
531
499
522
571
561
509
512
562
606
619
636
629
592
561
553
527
511
524
546
520
475
491
546
545
497
493
531
547
525
517
534
538
538
545
530
501
503
550
538
498
491
537
548
507
496
529
544
530
523
537
541
539
557
545
529
536
582
578
536
534
577
582
535
500
526
542
521
504
502
499
502
525
516
493
486
521
525
486
473
522
544
509
481
518
539
521
500
509
518
521
530
523
511
508
546
553
508
485
511
535
506
473
509
526
505
482
492
507
511
519
522
505
500
539
550
507
486
527
556
526
483
512
520
509
483
492
503
496
495
500
481
475
516
538
500
473
507
549
528
479
507
536
535
503
505
508
497
506
514
493
485
508
526
490
457
490
539
523
480
498
531
533
506
500
505
508
512
522
500
486
491
522
500
461
488
523
505
458
469
509
523
504
507
513
513
516
529
506
487
500
541
517
471
487
525
516
469
471
514
529
502
497
509
514
514
542
547
560
604
667
649
585
551
566
556
504
480
515
533
504
488
499
494
497
511
496
482
489
524
510
470
471
521
536
495
488
530
544
520
502
502
505
514
530
515
502
496
541
544
499
492
544
564
536
513
550
566
548
531
535
539
533
537
535
511
502
542
542
499
486
528
550
512
470
498
521
511
484
494
491
485
495
494
477
476
509
513
472
453
498
532
504
469
500
526
518
492
508
520
518
521
520
499
498
533
547
507
477
517
555
524
473
490
522
524
497
499
495
494
504
512
493
482
503
519
484
456
493
540
522
477
496
528
535
502
497
512
515
517
527
510
500
516
545
514
475
501
545
532
480
485
510
520
493
488
501
509
510
519
498
486
502
541
524
494
508
552
545
494
500
539
547
513
499
510
516
521
531
504
483
490
536
522
478
485
522
520
476
473
520
533
510
497
508
518
518
523
506
488
494
539
532
480
463
513
528
493
481
535
582
594
598
608
592
548
526
508
493
499
540
531
486
476
526
545
506
485
523
542
523
497
515
524
521
527
518
504
489
528
532
490
477
519
539
506
472
516
545
533
523
537
548
548
552
549
540
538
570
575
533
490
524
560
529
483
511
530
509
478
485
498
502
507
512
502
494
522
538
500
480
518
551
521
479
514
541
540
506
502
505
493
498
510
491
482
504
531
500
471
504
542
519
473
497
535
536
497
491
498
502
506
518
496
480
494
523
498
463
477
516
503
459
473
514
516
480
480
497
501
495
501
486
477
492
522
502
468
483
536
525
477
483
522
535
503
501
523
532
530
533
511
486
495
544
527
479
480
531
535
489
484
518
522
496
486
509
522
510
521
511
501
510
556
545
504
505
555
566
521
497
538
558
531
515
519
520
518
526
516
506
507
537
527
488
484
537
551
507
478
520
547
538
543
590
630
641
635
600
564
543
566
560
510
494
524
540
501
467
509
536
519
499
509
520
521
525
531
516
507
541
549
517
497
541
569
529
482
502
534
532
501
511
530
518
518
526
518
511
542
559
525
504
540
573
555
507
530
558
550
510
516
528
526
523
520
496
488
515
534
500
465
495
535
512
461
481
517
516
482
481
486
492
498
504
484
474
487
516
490
457
483
531
515
466
484
523
524
494
493
510
514
508
512
489
475
491
532
505
464
479
520
513
464
470
514
514
476
468
495
508
500
518
505
495
505
539
514
482
494
544
540
488
468
503
522
491
482
488
488
491
500
491
465
471
516
505
466
462
515
524
475
463
509
526
490
475
498
507
507
518
520
511
508
546
537
492
470
521
543
497
474
506
526
507
482
500
517
504
505
504
499
500
536
545
505
497
545
559
529
494
531
558
536
509
521
531
529
530
524
508
504
539
547
521
524
604
662
630
567
569
560
525
489
502
517
511
504
502
489
487
520
538
505
489
526
557
525
473
498
531
526
492
500
506
505
505
510
500
499
516
538
507
482
519
562
551
514
539
570
568
530
546
570
573
563
561
532
515
539
561
519
482
494
531
512
467
486
510
508
475
480
507
493
482
491
482
478
504
536
511
478
495
548
536
484
495
537
543
505
499
523
528
521
524
506
496
496
529
511
473
487
541
534
480
477
524
540
513
508
524
530
524
526
515
492
495
533
520
480
481
528
528
481
472
518
529
501
485
505
518
513
517
511
502
504
542
540
502
501
550
559
521
497
541
564
531
508
529
539
533
534
523
501
498
537
537
494
479
526
547
507
470
513
545
522
489
504
517
511
509
508
499
498
530
535
498
482
524
551
520
486
522
548
536
510
523
536
539
538
539
527
517
545
554
507
474
511
547
518
471
492
522
519
486
500
512
515
531
569
602
609
631
624
546
493
518
550
537
489
508
541
535
496
512
536
536
522
526
507
501
524
544
511
478
493
539
525
476
491
533
537
503
505
526
532
528
532
528
530
548
571
544
524
548
595
576
517
525
551
552
519
511
528
525
500
501
494
492
501
533
515
478
492
545
534
477
472
518
534
497
479
500
512
507
511
502
489
481
515
504
472
481
534
531
479
470
519
544
513
491
513
521
517
515
510
505
505
540
525
489
474
517
527
480
469
502
519
493
469
494
506
498
499
492
486
489
525
533
500
489
535
548
508
482
529
553
523
493
497
509
511
507
504
491
481
515
527
490
467
503
528
499
466
503
523
504
476
495
521
518
507
506
499
501
535
541
514
498
536
565
531
489
522
552
542
503
517
520
515
511
514
508
510
529
534
496
479
517
563
537
489
517
553
549
509
509
519
522
519
520
516
513
550
609
607
590
606
621
579
509
522
559
559
517
516
536
541
529
528
531
528
539
560
530
487
505
557
540
487
480
524
540
503
495
514
516
511
522
515
510
521
546
523
497
518
572
567
522
526
573
584
540
528
555
561
550
547
533
522
523
550
530
480
474
528
529
477
471
510
522
485
467
497
517
501
496
489
490
497
535
535
506
503
554
556
506
489
536
556
523
496
505
522
523
520
513
508
495
523
522
486
482
535
550
507
484
529
553
526
498
529
544
535
524
520
503
487
525
532
490
477
515
541
505
469
512
545
529
501
526
542
537
526
522
522
521
545
549
511
481
516
551
521
478
499
530
520
486
499
512
507
499
503
500
503
526
544
512
488
526
564
531
486
520
557
548
507
502
508
518
510
518
511
497
506
526
497
475
503
540
510
464
489
537
540
501
517
565
607
623
636
617
575
556
561
523
494
512
555
534
478
483
521
530
490
484
514
511
503
508
498
498
506
537
516
490
506
555
546
498
505
553
560
522
515
544
552
546
546
528
516
527
564
549
514
523
562
549
499
498
548
560
521
502
527
538
524
517
510
504
506
541
526
479
461
515
525
479
466
508
520
486
464
498
513
498
492
490
489
496
531
528
498
491
538
550
507
470
510
540
514
482
505
511
507
501
497
489
486
519
519
482
477
514
533
493
459
505
530
508
476
499
517
510
500
501
500
497
521
526
502
492
534
557
513
459
485
522
512
471
477
485
489
481
487
485
477
489
502
473
460
499
535
513
469
498
538
533
493
505
526
528
511
507
498
494
515
531
499
465
487
529
503
455
484
515
504
463
472
501
504
487
490
488
488
505
532
513
487
506
552
529
485
506
552
548
499
502
532
542
524
515
509
508
519
550
544
538
575
648
634
558
525
537
524
480
472
504
520
508
508
502
498
508
534
510
472
479
536
530
480
479
511
523
487
473
505
508
499
499
499
500
511
539
522
493
499
558
562
519
507
556
578
543
514
536
548
541
533
526
526
512
528
516
482
480
518
527
482
460
509
525
485
453
485
509
501
496
498
504
504
526
537
504
495
542
555
510
467
506
539
521
486
496
515
518
512
517
509
498
523
534
500
490
532
542
502
468
513
557
538
496
527
553
552
536
536
527
511
533
546
516
496
517
551
521
481
516
562
540
489
506
535
548
535
540
538
533
551
567
547
525
544
581
549
497
512
550
547
502
507
530
537
523
519
519
513
520
546
519
494
519
565
551
509
530
571
568
529
530
561
569
545
539
529
521
532
560
535
504
511
560
552
502
507
560
555
508
499
539
555
537
542
542
542
547
565
544
501
504
560
557
504
499
555
581
573
591
639
645
606
569
554
548
551
570
548
528
528
578
570
516
512
561
576
533
511
547
559
544
530
529
518
513
542
535
502
489
540
550
500
482
534
557
519
485
520
547
537
528
534
537
534
562
570
535
524
566
573
522
485
527
559
528
478
498
520
520
505
507
506
504
524
526
493
473
507
532
497
462
499
532
509
468
493
524
514
494
496
496
498
522
537
510
490
522
555
520
469
496
541
526
478
496
516
518
499
499
502
501
516
536
508
487
515
556
524
489
519
557
547
496
497
527
538
516
508
510
499
513
534
503
485
497
538
519
473
495
542
537
493
493
527
531
512
510
509
513
527
546
526
504
520
568
549
494
484
532
541
496
487
518
521
503
501
506
515
512
528
509
487
500
557
552
499
498
553
566
539
523
552
566
551
541
542
548
553
572
552
525
521
568
561
512
505
555
567
530
507
541
564
549
543
547
551
562
606
631
635
650
691
665
585
545
588
611
582
544
570
586
574
560
554
547
545
570
570
540
529
566
581
540
515
568
604
581
544
571
593
590
570
568
569
570
592
596
562
545
588
614
575
546
593
619
590
547
573
602
608
582
588
590
583
598
599
576
562
592
622
582
534
568
609
595
545
568
588
593
573
581
593
581
600
622
593
582
599
634
611
571
603
655
650
609
623
661
670
642
640
646
653
668
681
650
636
647
691
675
627
645
700
695
650
649
683
695
670
678
682
687
695
705
680
660
677
727
704
643
647
688
693
649
643
679
692
667
659
669
673
671
694
672
648
659
720
705
660
665
715
731
682
657
694
709
691
679
684
675
673
695
676
652
648
695
691
638
630
678
695
655
623
661
677
654
641
645
650
652
674
672
647
644
687
690
646
623
675
698
653
609
629
649
642
629
630
632
616
629
633
606
601
651
666
626
598
649
680
634
599
630
657
650
620
611
604
605
627
634
606
577
621
663
659
670
716
743
692
609
612
618
613
587
588
590
579
600
609
578
565
604
637
605
570
604
643
623
576
607
637
635
604
600
589
581
604
621
591
577
599
636
608
564
598
651
645
601
619
655
660
634
626
634
640
647
658
625
604
609
653
633
581
604
659
657
612
616
652
666
644
645
654
663
670
684
657
622
645
704
687
639
634
688
706
673
669
703
713
697
703
719
732
730
746
735
725
753
811
796
753
768
839
873
841
846
905
932
930
928
941
938
942
945
941
943
941
945
946
939
938
951
949
944
929
935
943
945
944
940
939
943
945
942
944
938
943
944
937
933
940
943
941
921
938
939
945
944
939
943
943
947
945
941
944
946
945
938
928
945
942
941
921
938
945
942
940
937
939
944
947
949
933
919
940
943
931
906
928
939
938
895
913
934
933
903
897
886
882
897
895
857
827
854
881
843
802
821
848
822
772
788
807
788
745
741
759
789
838
874
863
838
835
848
798
725
730
767
743
678
671
684
683
647
634
639
637
616
618
585
564
584
610
571
513
536
589
576
523
519
553
559
521
507
497
495
496
507
477
454
462
497
473
419
429
482
485
434
416
448
455
417
405
406
400
394
400
368
328
333
385
365
306
284
342
358
306
284
314
321
296
287
301
294
290
304
294
274
277
309
295
248
244
309
331
284
263
304
325
304
278
281
286
287
300
286
263
247
286
288
240
229
284
309
274
239
277
301
287
264
275
284
282
297
290
256
251
297
308
256
218
267
302
270
224
254
278
270
247
257
274
264
278
285
260
258
303
325
290
263
310
347
318
265
284
318
319
293
298
304
298
312
326
305
297
327
366
340
313
360
404
391
354
388
431
433
412
418
431
437
443
449
438
429
460
490
446
402
418
467
462
439
494
559
569
520
494
482
474
472
485
461
444
472
505
470
421
441
502
500
446
447
484
496
462
455
466
468
471
482
459
436
443
494
479
435
450
507
512
458
456
507
515
487
480
495
507
507
523
504
490
499
544
528
478
480
530
528
474
457
497
510
480
462
481
488
482
493
474
434
427
480
474
423
404
460
481
435
409
441
467
450
429
438
436
439
461
453
428
415
465
473
430
411
450
476
438
409
445
464
451
428
444
459
451
460
453
435
435
468
470
430
416
468
504
466
423
465
493
483
451
466
482
485
491
486
448
436
482
505
458
413
457
500
472
424
459
485
472
440
448
468
469
464
464
443
440
482
512
469
433
476
523
501
445
469
509
512
475
476
482
474
481
493
468
459
480
510
475
439
472
514
499
445
464
508
518
486
488
500
500
500
507
477
464
490
528
496
447
457
506
498
441
451
490
498
487
518
573
601
595
591
536
496
496
537
510
452
461
525
521
457
453
497
505
472
458
475
480
472
484
473
463
471
516
509
462
466
524
530
481
466
514
538
508
491
514
526
525
536
516
486
484
533
526
477
474
527
522
464
437
491
510
477
454
470
483
485
495
488
471
471
517
516
464
429
482
510
468
431
482
500
462
435
455
479
476
474
468
454
456
505
519
478
453
506
537
496
465
511
539
520
482
486
485
488
494
493
470
449
493
514
472
446
494
520
483
440
480
517
510
482
496
511
509
509
511
476
460
507
535
489
455
492
529
502
449
479
522
523
490
503
520
518
521
529
514
502
528
555
514
481
515
568
544
480
490
518
526
495
496
512
510
505
516
500
492
517
557
535
493
517
573
558
507
519
561
570
531
527
548
553
547
550
525
497
499
544
521
476
500
547
531
473
477
532
552
514
521
572
614
639
655
613
548
525
565
546
497
501
543
540
481
474
526
539
505
486
510
522
513
521
508
504
512
553
547
510
515
577
593
549
529
580
602
579
561
579
590
592
599
579
554
555
611
610
556
547
589
604
555
523
574
584
552
518
537
554
551
557
551
531
526
571
576
519
489
541
573
536
491
534
547
526
496
513
533
522
521
521
509
512
529
538
500
483
537
566
536
488
524
561
540
505
520
539
542
544
544
530
528
564
579
531
498
542
589
555
500
535
572
567
527
532
528
523
526
534
517
513
521
541
502
472
514
561
526
462
491
540
549
507
506
534
539
534
539
520
508
528
564
530
474
493
551
539
477
490
533
535
494
489
517
528
527
539
520
509
523
561
548
509
523
576
565
506
504
555
567
521
508
527
534
532
539
519
484
482
531
520
474
469
517
520
467
464
537
569
558
566
600
608
562
539
512
499
505
549
542
501
497
555
561
505
486
536
557
523
492
512
532
531
531
516
498
502
551
546
497
471
526
551
508
477
507
534
517
491
521
525
516
526
527
521
507
544
551
505
493
552
573
527
478
522
552
529
489
507
526
522
519
514
483
475
517
534
489
462
492
531
500
452
498
519
506
472
487
508
514
512
526
516
509
538
554
508
461
497
544
512
457
493
534
511
467
478
504
514
511
522
518
511
536
559
517
488
529
576
541
477
491
525
528
485
485
510
505
485
496
486
482
507
544
518
482
507
562
546
490
503
552
557
507
491
501
510
511
516
496
491
490
521
496
462
482
531
523
464
474
529
539
495
487
515
528
525
524
512
506
515
557
534
476
482
543
539
478
474
520
526
488
469
500
508
494
500
491
485
493
543
543
492
491
552
556
512
494
542
562
523
492
506
512
512
533
553
580
605
633
597
515
486
537
552
515
485
532
555
521
487
500
506
505
509
502
485
477
521
523
478
465
514
542
499
461
508
535
514
484
508
532
516
508
511
509
511
549
572
529
509
564
599
564
515
557
593
577
539
545
559
555
541
535
518
508
535
547
500
461
501
544
511
456
493
532
518
471
478
506
511
502
505
491
488
517
543
504
480
519
563
530
483
517
561
553
501
489
499
507
507
514
495
493
497
524
493
460
492
533
509
450
476
534
539
491
493
525
538
530
528
503
491
511
550
523
485
486
536
526
469
480
537
538
494
483
512
531
526
524
524
525
535
568
537
486
497
558
552
491
486
518
530
492
478
508
505
494
503
495
484
480
525
511
468
462
516
528
473
460
499
517
486
467
503
511
495
497
494
496
505
548
548
504
500
559
576
520
482
532
560
531
496
522
525
516
514
509
507
505
531
526
485
481
549
590
573
576
650
677
625
550
550
558
549
539
536
526
517
551
554
505
470
518
556
515
471
504
545
533
488
509
534
530
522
527
521
513
546
564
535
514
553
592
551
506
548
593
583
528
542
570
576
566
562
549
528
545
565
524
494
517
549
512
453
489
535
529
483
491
518
527
516
516
509
505
524
551
508
460
486
544
521
455
482
519
514
468
471
506
517
506
515
504
496
511
546
525
486
502
557
538
478
486
537
545
496
482
490
500
494
498
489
491
486
518
494
463
477
527
520
467
472
524
530
485
476
514
525
506
506
502
504
533
589
580
541
545
615
618
560
547
599
622
579
560
600
611
599
591
584
573
559
597
586
544
540
605
616
555
528
582
611
582
550
575
589
584
575
578
581
576
605
594
542
527
584
601
547
508
556
574
545
505
531
555
554
549
551
542
539
579
597
594
618
685
701
621
538
546
572
548
500
523
530
520
514
518
511
510
528
536
498
480
526
570
533
488
533
580
567
515
521
543
563
561
570
576
573
595
619
590
569
612
645
605
557
599
648
643
605
613
635
644
622
611
580
560
585
612
569
533
545
593
564
508
532
583
563
504
508
546
561
547
555
546
538
556
584
560
527
543
599
577
510
498
547
561
513
503
540
549
519
515
510
513
528
555
535
500
511
571
559
496
492
547
561
508
499
534
541
526
519
500
488
497
532
507
471
458
519
520
459
447
493
516
477
456
491
495
485
484
487
485
482
506
493
455
457
529
537
477
463
522
552
510
467
486
505
501
494
497
474
466
505
505
466
463
503
514
467
438
497
540
512
474
500
523
519
506
503
496
494
527
530
488
466
500
526
486
443
498
536
507
458
481
509
511
498
500
494
491
516
525
496
478
528
579
566
534
585
625
578
491
485
495
493
474
476
469
468
482
506
471
444
484
523
492
436
472
522
514
461
469
504
515
491
486
474
472
499
523
482
446
473
532
511
455
475
515
517
473
480
520
531
512
514
509
509
528
554
525
490
505
558
533
461
468
525
529
472
461
495
493
475
477
472
477
484
507
478
447
466
533
519
462
467
526
537
487
474
514
526
507
498
485
486
495
524
499
457
450
514
513
453
445
508
513
465
444
487
508
495
503
507
504
501
534
525
493
495
554
551
487
465
527
556
513
470
494
509
503
496
498
488
479
516
514
480
479
521
534
484
459
523
548
511
465
503
533
535
523
519
518
517
550
558
530
518
563
585
535
508
561
594
560
505
523
539
544
529
526
519
506
536
551
511
494
527
562
521
480
532
564
542
491
515
550
551
532
534
536
536
562
582
555
530
563
604
567
524
575
653
676
638
652
649
619
566
553
550
541
552
568
533
509
529
579
556
501
525
582
585
541
547
580
590
565
560
562
565
582
605
576
551
576
641
618
550
561
624
634
581
579
617
619
598
597
603
608
609
624
596
567
587
641
614
545
549
612
625
584
566
598
610
588
589
595
593
592
616
589
548
554
617
607
544
524
579
606
561
534
560
574
562
557
558
555
547
572
559
527
535
592
593
535
514
581
611
561
528
573
595
579
564
554
537
538
569
565
528
506
561
576
522
492
557
580
534
490
528
561
543
517
515
521
524
553
556
536
528
577
595
539
501
538
569
542
492
521
552
549
531
528
529
528
553
576
538
518
561
591
541
503
553
593
564
500
524
544
537
513
515
519
510
526
543
505
489
531
575
552
502
537
587
569
511
541
581
581
547
540
537
540
558
582
565
565
615
681
643
551
538
572
566
516
523
555
550
523
524
531
542
552
568
534
510
539
602
582
525
540
594
596
546
541
576
587
560
551
545
534
543
572
547
516
523
593
581
520
522
575
597
548
530
576
597
570
558
562
565
562
583
558
532
543
604
604
547
545
612
643
596
567
617
651
657
663
685
721
748
798
801
794
808
871
892
850
844
913
933
895
857
895
913
906
883
871
866
864
886
875
821
796
845
849
791
759
802
809
755
702
735
761
746
727
726
721
708
727
727
695
677
723
734
677
620
