516
518
519
518
518
517
517
518
518
517
517
519
520
520
520
520
520
519
518
519
520
521
521
521
522
523
524
523
522
522
523
524
525
526
528
528
528
529
530
532
531
530
529
529
529
530
529
529
528
527
526
523
521
521
520
517
514
512
512
513
512
513
513
514
516
517
518
519
519
517
516
512
502
492
500
529
569
608
629
615
573
528
504
499
501
504
505
507
508
509
507
507
507
507
508
509
508
508
509
510
510
510
511
511
512
514
517
520
522
523
526
527
528
530
532
533
534
534
535
535
534
535
534
534
535
536
536
536
534
532
530
529
527
526
522
519
516
515
513
511
512
512
511
511
510
509
507
505
505
503
499
497
497
496
495
494
494
493
491
492
493
495
497
497
496
495
496
498
497
495
494
493
492
491
491
490
486
484
484
485
486
487
488
489
489
489
489
490
487
487
492
495
494
493
492
489
484
483
482
480
477
475
475
474
474
476
477
475
476
480
482
480
478
474
468
467
486
522
562
594
598
568
521
489
478
479
484
490
493
495
496
497
497
496
497
499
501
501
500
499
499
500
501
504
505
504
504
505
506
506
507
508
509
512
517
520
521
523
525
527
527
527
529
531
530
531
533
535
533
531
529
527
525
523
521
517
514
513
512
510
509
509
510
509
509
511
514
514
514
514
513
512
512
514
515
515
515
517
518
519
521
522
523
524
524
525
524
524
526
527
527
525
524
524
521
519
518
517
516
517
518
518
516
516
517
517
518
518
520
520
520
520
519
516
516
517
516
514
513
512
511
509
507
506
505
505
505
505
504
502
498
491
483
483
504
538
573
601
600
568
522
491
481
480
484
489
493
496
499
500
500
500
502
502
502
503
505
509
511
511
512
513
513
511
511
512
512
511
514
514
513
514
517
519
520
521
522
524
524
524
525
524
522
522
524
524
523
521
520
518
517
517
515
513
511
512
513
513
511
510
509
508
509
508
507
505
505
506
507
506
505
505
505
504
505
505
505
505
507
509
510
510
510
510
507
507
506
506
506
507
508
507
506
507
507
508
510
512
513
513
514
516
519
520
520
520
520
518
518
518
518
517
517
517
517
516
515
515
514
515
516
517
517
518
519
517
513
511
511
510
507
500
493
499
525
562
598
617
602
562
520
497
492
496
499
498
498
499
498
498
498
500
501
501
502
504
505
504
506
508
507
506
505
505
504
501
502
504
505
505
505
507
509
511
514
516
517
518
519
519
518
519
521
522
522
522
522
521
518
515
513
511
509
508
506
503
502
502
503
503
503
503
503
500
498
499
500
500
501
502
503
503
506
508
508
511
513
515
515
516
516
515
515
515
514
513
512
511
511
509
508
507
506
503
502
502
502
499
498
498
498
498
499
499
500
500
500
501
501
501
502
501
500
499
500
501
500
499
499
500
500
499
498
499
500
501
502
502
502
504
506
505
498
490
491
513
548
589
616
609
574
530
502
490
489
491
492
493
494
497
498
498
498
501
502
503
504
505
504
502
503
504
505
506
507
509
510
513
515
516
517
519
521
523
525
527
529
530
532
535
538
538
539
538
536
534
534
534
531
528
527
528
526
523
521
519
516
513
511
510
508
507
507
508
507
508
511
514
514
515
515
521
534
546
554
558
561
562
561
561
561
561
561
560
558
556
555
550
549
548
548
548
547
545
543
541
541
541
539
538
537
536
535
534
534
533
532
532
532
531
530
528
526
524
523
523
522
521
520
520
520
517
516
515
515
513
511
506
499
495
511
542
575
600
605
581
542
508
492
488
490
494
497
500
502
502
504
506
508
510
511
511
510
511
513
513
511
513
514
515
513
513
513
513
512
513
515
517
517
517
518
518
519
519
520
521
522
521
520
518
519
519
518
515
513
511
508
503
500
498
495
491
488
487
484
481
478
476
475
474
475
475
475
475
476
475
476
480
483
484
484
486
488
489
488
487
488
489
491
492
492
491
490
489
488
487
488
490
491
492
495
498
499
498
499
502
505
507
508
509
509
509
510
511
510
509
509
508
508
508
507
507
506
506
506
506
506
507
502
493
493
513
545
579
606
604
574
534
505
493
492
495
499
500
501
500
499
499
499
499
501
503
502
502
501
501
500
502
504
505
504
504
505
506
508
509
510
511
513
515
516
515
514
516
517
516
516
516
515
514
514
514
514
512
512
513
512
512
513
512
510
509
508
507
505
505
505
504
503
503
504
503
503
503
503
501
500
501
502
500
498
499
499
498
497
497
496
494
494
495
495
495
496
497
497
497
498
499
499
499
500
501
501
504
504
504
502
502
504
505
506
506
506
505
506
507
507
507
505
506
507
507
507
505
505
504
499
492
490
506
539
578
607
608
581
540
508
497
497
503
506
509
512
513
512
512
513
513
511
512
514
514
513
513
514
514
512
512
513
514
514
515
516
516
516
517
520
522
524
526
527
527
528
526
525
525
526
528
528
527
528
528
527
526
526
525
525
525
525
523
520
519
518
518
515
512
510
509
510
510
511
512
513
514
513
513
517
520
522
522
521
523
525
523
522
522
521
521
521
522
523
523
523
524
523
522
523
524
523
523
525
527
526
526
525
524
523
522
519
516
513
510
507
505
504
502
502
501
501
500
501
500
500
501
500
498
497
496
493
483
476
490
521
560
597
610
585
539
500
484
481
485
490
492
493
495
498
499
498
497
497
496
494
493
493
492
492
492
492
493
494
495
497
498
500
502
504
505
507
510
511
509
509
510
509
507
507
508
508
509
510
510
512
512
511
509
507
505
504
504
503
503
504
504
503
504
506
507
508
510
512
512
512
512
511
509
508
509
510
511
513
516
515
511
508
508
508
506
506
506
505
506
509
511
510
509
509
510
508
506
504
504
504
505
506
507
505
505
506
507
507
507
509
509
508
506
503
500
498
495
493
491
492
495
497
498
500
501
503
502
499
492
483
486
512
550
591
614
603
563
518
491
483
484
486
487
488
489
489
489
490
491
491
492
492
492
495
497
499
500
501
502
505
507
509
512
514
514
514
517
518
517
518
517
517
516
517
519
520
521
522
522
520
520
519
518
517
515
513
511
509
508
506
505
504
505
507
507
506
506
504
502
501
502
503
503
504
505
506
506
509
509
510
509
509
510
511
511
511
512
511
509
508
508
506
506
507
509
508
509
510
510
511
513
516
517
517
516
515
514
512
512
511
509
507
507
506
505
504
503
502
501
503
505
506
503
497
491
498
523
560
598
618
606
568
528
504
496
494
496
498
499
502
504
505
504
504
503
503
503
505
507
509
511
515
516
516
515
516
517
517
518
518
517
517
520
521
521
521
521
521
520
520
523
524
524
524
525
525
523
521
520
518
518
518
518
517
516
515
512
509
509
509
510
509
509
510
512
512
514
514
513
511
511
511
510
510
510
510
509
508
509
510
510
510
511
513
513
511
509
508
509
511
512
511
509
509
511
511
510
508
507
505
503
502
501
498
497
498
499
499
500
500
497
496
497
496
495
495
494
486
478
486
515
554
591
611
595
555
512
491
485
487
490
492
493
494
494
494
495
496
496
496
495
493
494
495
496
495
496
498
498
496
496
498
499
500
502
505
505
505
505
504
503
504
507
511
513
514
514
514
513
513
514
514
511
509
509
508
505
504
503
502
501
499
498
499
499
499
499
497
495
493
492
490
491
492
493
492
491
492
491
491
493
494
495
495
496
498
499
502
503
504
505
506
507
507
506
507
508
507
505
505
506
504
503
503
502
499
497
496
497
496
496
498
499
498
498
499
500
499
497
489
481
488
517
556
594
613
597
556
513
492
489
493
497
499
500
501
501
501
502
502
503
506
510
513
515
516
518
518
519
520
521
521
522
522
521
522
524
524
524
525
527
528
531
532
534
534
533
533
534
535
534
534
533
533
533
532
532
530
528
526
525
523
521
519
518
516
515
514
514
513
513
513
514
514
513
514
516
516
516
516
515
513
513
513
513
514
517
520
521
520
519
520
520
518
517
516
516
515
514
512
509
509
510
511
511
512
514
513
511
512
511
511
513
514
510
500
494
506
537
576
614
629
606
559
518
500
498
501
504
506
507
505
506
508
508
507
507
508
510
511
513
513
514
513
511
508
507
509
510
510
510
511
512
513
514
514
515
515
515
516
516
516
515
515
515
513
513
515
515
513
512
511
510
507
504
502
500
499
500
500
499
498
497
496
496
498
499
498
495
496
498
498
497
497
497
496
496
496
496
495
495
496
496
495
495
497
499
499
499
500
501
500
499
498
498
497
496
495
494
493
493
492
490
491
492
493
493
494
496
498
498
500
500
495
484
477
488
519
558
598
613
588
542
503
487
486
490
495
497
497
498
499
500
499
499
499
501
502
503
503
503
501
502
502
500
500
501
503
504
503
503
504
505
506
507
508
509
511
512
514
515
517
519
519
518
518
517
515
513
510
508
507
506
504
500
496
494
494
492
490
490
490
490
490
489
490
490
489
489
490
491
492
492
492
491
491
493
494
495
497
497
496
495
496
498
500
500
500
501
500
499
499
499
500
501
502
503
502
503
506
508
508
507
507
508
508
507
507
507
507
508
507
507
506
506
508
508
510
512
513
512
509
502
496
502
528
566
605
628
618
582
538
513
504
502
503
503
504
504
503
505
507
508
508
507
506
506
507
509
511
510
511
513
515
514
513
512
511
510
510
513
514
515
516
517
518
519
520
520
521
521
522
522
520
521
523
524
524
524
525
524
522
522
521
519
516
516
516
515
512
512
511
512
512
512
511
509
508
508
509
509
509
508
508
508
507
507
506
504
503
503
503
503
505
506
507
507
508
508
507
507
507
508
508
507
509
510
509
508
508
510
510
511
513
515
516
515
515
514
512
511
511
509
507
505
505
504
505
505
505
504
504
506
507
507
507
505
497
487
491
516
551
590
613
605
569
528
504
498
499
503
506
509
510
510
510
510
512
514
517
518
519
521
523
523
524
524
526
524
525
527
528
529
530
531
530
529
529
531
532
532
533
534
534
535
536
536
533
532
531
531
529
528
527
526
524
524
523
521
520
520
519
520
520
521
522
523
521
519
519
519
519
521
522
519
516
518
520
519
519
520
519
517
517
518
518
517
515
514
512
512
513
515
516
516
518
519
519
519
519
518
517
517
518
518
516
515
514
512
511
512
513
512
512
512
513
514
513
513
514
513
514
513
511
508
507
505
505
504
504
503
501
501
503
503
501
499
498
498
497
496
496
491
483
484
507
540
576
603
599
564
520
493
484
485
489
491
492
492
492
492
492
491
493
494
496
496
497
497
497
498
499
500
499
499
501
503
501
501
503
505
508
511
513
515
514
514
515
516
515
514
514
513
513
512
512
510
507
506
507
506
504
502
500
497
495
496
496
495
494
493
493
492
493
493
491
490
490
491
491
492
493
494
493
492
493
493
491
492
494
498
501
502
502
502
501
500
502
501
501
500
501
501
502
503
503
503
503
505
505
505
506
505
504
503
502
503
505
505
506
506
506
507
509
509
509
510
512
513
516
518
518
517
515
514
514
514
513
511
511
511
510
510
511
511
511
511
511
512
514
515
512
503
496
505
534
571
608
626
608
566
524
502
495
495
497
500
502
504
505
506
505
505
507
507
506
506
507
508
509
509
509
510
511
512
512
511
510
509
509
507
508
509
510
509
511
513
512
513
514
514
514
515
517
517
515
513
511
510
507
507
506
506
505
504
502
500
498
498
498
498
496
496
497
496
496
495
496
497
498
499
501
502
502
503
504
504
503
503
502
500
501
502
503
502
503
503
502
500
499
498
498
499
501
503
502
503
503
503
504
505
506
506
504
504
504
504
502
500
499
496
495
495
497
497
498
498
497
498
500
501
500
499
498
497
496
494
494
493
490
489
490
492
492
493
493
495
495
495
495
492
484
478
488
518
555
592
610
591
549
509
488
483
485
489
492
494
494
495
497
500
502
502
503
504
506
507
507
506
505
506
505
505
506
508
509
509
510
512
513
515
517
518
519
520
521
521
521
523
525
527
527
526
524
523
521
518
515
513
511
510
509
506
504
504
504
502
500
501
501
501
502
503
503
505
507
507
507
507
507
507
508
509
510
510
508
509
511
512
511
510
509
509
508
508
507
507
507
507
506
504
503
502
502
502
504
505
506
506
507
509
509
510
512
514
516
516
515
513
512
510
510
512
513
512
510
509
507
507
507
508
510
512
514
515
515
516
516
515
511
509
509
508
508
510
513
516
518
520
519
511
503
508
534
571
612
640
631
590
542
514
506
510
515
518
519
521
523
525
526
528
528
529
528
526
525
525
523
523
524
524
522
522
522
521
521
522
523
523
525
528
530
530
531
531
532
532
533
534
534
533
533
533
531
529
528
527
525
522
520
517
513
509
507
507
507
509
509
509
508
508
508
508
507
508
510
512
511
510
508
506
503
501
501
500
500
502
502
501
500
499
497
496
498
500
501
501
500
497
494
492
493
494
495
496
496
497
497
499
503
506
506
507
509
510
510
510
509
508
507
506
504
501
498
497
498
497
497
496
494
493
493
493
492
488
481
473
476
500
538
581
609
599
557
510
483
476
480
483
483
485
488
489
489
490
492
494
495
497
498
499
500
502
503
505
507
510
513
515
516
519
522
524
527
531
533
535
537
538
537
535
532
531
531
532
530
529
528
525
524
523
521
518
516
514
511
510
510
510
509
509
509
508
507
508
508
508
507
507
508
507
509
509
509
507
506
505
504
503
503
503
501
502
503
505
505
504
505
504
503
503
504
506
506
506
507
510
510
510
509
508
505
504
503
500
497
495
494
494
493
494
494
494
494
495
495
495
494
493
487
478
482
508
545
582
602
589
550
508
487
482
483
486
488
490
491
491
491
491
490
489
489
488
488
488
489
488
486
487
488
490
492
494
495
495
496
497
498
499
500
501
502
502
502
502
502
501
502
504
505
504
504
502
501
500
499
499
498
497
497
496
493
491
490
489
485
483
482
482
480
479
480
480
479
478
477
478
479
481
481
480
480
480
479
478
478
478
477
474
472
471
469
467
466
467
468
467
467
467
465
464
465
465
464
465
466
466
463
462
461
460
457
454
452
449
447
444
443
440
439
438
438
437
437
438
439
437
432
424
422
437
468
504
534
538
507
461
424
406
403
405
406
404
404
403
401
401
403
405
404
405
404
403
400
399
398
399
400
399
399
400
402
404
407
409
410
414
417
416
416
418
421
422
423
425
427
428
429
430
432
430
432
434
431
428
427
426
424
424
424
424
422
424
424
424
424
425
427
428
427
425
426
425
423
423
423
424
424
425
426
424
424
424
425
425
425
425
425
423
423
424
425
425
426
427
428
428
429
431
432
435
437
438
442
452
464
471
474
476
477
478
478
478
479
479
478
479
479
480
481
481
480
478
478
479
481
479
474
466
469
491
528
565
588
579
543
499
472
461
461
463
465
466
469
471
472
473
476
477
478
481
484
486
486
489
491
492
492
493
495
497
498
502
505
506
508
512
515
516
518
520
522
524
527
528
529
530
531
532
535
536
536
535
533
532
532
532
528
526
525
525
524
522
522
521
520
521
522
522
521
521
523
523
523
524
526
526
526
526
526
527
528
529
531
531
531
532
532
532
531
530
530
529
529
530
529
530
531
531
529
528
528
528
526
526
526
526
526
524
524
524
521
520
520
519
517
516
516
515
514
513
514
515
514
515
516
517
519
521
522
522
520
515
505
505
527
562
604
635
632
596
548
518
508
510
513
515
517
522
525
528
530
532
533
534
536
538
539
539
539
538
537
538
540
540
541
542
542
543
544
546
545
545
545
546
548
549
550
550
549
548
550
552
552
552
551
551
550
548
546
544
542
541
538
535
533
533
533
533
530
530
531
530
529
529
530
530
529
530
531
531
532
533
533
531
530
529
528
528
528
529
529
528
527
527
526
525
524
523
521
522
522
522
522
524
526
529
528
528
528
529
529
528
528
529
529
531
532
530
530
531
532
531
531
532
531
530
530
530
531
530
529
529
530
531
532
532
531
529
531
531
531
529
525
518
521
544
578
614
633
622
586
546
522
514
513
515
516
518
519
520
520
520
523
524
526
528
531
533
535
536
537
537
537
539
540
541
542
544
546
546
547
548
548
547
547
547
546
546
547
549
548
548
548
550
552
551
549
545
541
541
542
542
540
538
536
534
533
532
530
528
528
527
527
526
527
528
527
526
528
529
531
530
531
533
533
533
532
534
534
535
537
536
534
532
530
529
527
527
527
526
525
527
529
531
532
532
533
533
531
531
531
529
528
527
526
525
526
527
527
527
528
529
530
529
528
528
527
526
527
529
529
527
527
528
528
529
527
525
524
525
524
524
522
521
522
521
520
521
522
522
520
513
505
507
530
566
604
627
617
581
538
512
503
505
507
508
510
511
513
513
515
517
518
517
518
519
518
518
519
521
520
519
518
520
521
523
524
526
527
528
530
531
532
533
535
537
537
539
541
541
541
540
540
539
538
538
536
534
532
530
528
523
521
520
518
517
517
518
517
516
515
514
514
513
513
513
511
513
515
516
515
515
516
517
518
517
517
516
516
516
516
515
514
514
514
514
514
513
511
509
508
509
511
510
510
511
510
510
510
511
510
509
508
510
510
509
509
508
505
506
507
507
506
505
504
505
505
504
503
503
503
504
507
508
511
514
516
515
514
513
512
511
509
508
507
507
508
508
506
504
503
504
505
506
508
508
503
495
494
514
546
586
622
629
598
551
515
502
501
505
507
508
508
508
508
506
506
506
506
506
508
510
511
512
513
513
514
512
512
512
513
513
513
514
515
516
518
519
519
521
524
526
527
529
530
530
530
531
532
530
527
527
525
523
520
518
517
513
511
510
510
507
507
507
505
503
501
502
502
502
502
503
504
504
504
505
504
503
504
505
504
504
505
506
507
508
508
508
506
504
503
503
502
502
503
503
502
502
501
502
503
505
505
505
505
506
505
505
507
507
505
503
502
501
501
501
503
503
502
501
501
500
499
499
500
502
503
504
506
508
508
508
509
509
508
508
509
511
511
510
510
510
509
509
509
509
509
510
511
510
508
505
498
493
507
540
580
616
629
605
559
519
501
495
495
497
498
500
501
501
501
501
502
504
505
505
504
505
509
512
511
512
514
515
515
515
514
512
511
513
517
518
520
522
523
522
523
524
524
524
525
526
525
525
526
525
522
519
517
516
512
509
508
507
505
503
503
504
502
502
502
500
500
500
500
498
498
499
500
500
499
499
498
497
496
497
496
494
493
493
492
491
492
491
490
489
491
491
490
488
486
485
485
485
486
486
485
485
485
486
486
485
484
483
482
482
482
482
483
484
484
483
482
482
483
483
485
487
488
487
489
493
494
494
495
496
495
494
494
494
491
488
486
485
484
482
482
483
482
485
488
488
484
479
473
476
499
536
575
599
590
555
513
487
477
475
478
478
479
480
482
484
486
485
486
487
488
491
492
491
491
492
495
495
495
497
498
497
497
498
499
500
502
502
501
502
502
503
503
504
507
509
511
512
513
511
508
506
506
506
505
503
501
498
496
494
493
493
493
493
494
495
496
499
499
499
499
500
500
499
500
502
500
500
502
505
506
508
508
507
505
505
507
508
506
505
505
504
505
505
506
507
507
505
504
503
503
505
505
504
503
502
502
501
502
502
501
499
498
498
499
498
497
497
496
495
495
495
492
490
493
496
496
495
493
492
489
488
488
487
485
485
484
481
478
477
477
476
476
475
474
472
470
464
459
465
493
532
571
595
587
550
505
479
472
472
475
477
478
481
484
486
486
487
487
489
491
493
493
494
496
497
498
499
500
501
500
500
500
499
498
498
498
497
497
499
501
502
504
506
507
508
509
510
510
509
510
511
511
510
510
509
507
503
499
497
497
495
494
493
492
493
493
493
492
492
493
493
493
494
495
495
494
494
495
494
494
495
496
495
495
495
495
494
494
494
493
493
493
495
495
496
497
499
501
501
500
500
499
499
502
503
502
501
502
502
501
501
502
502
503
504
506
504
504
506
508
507
506
505
505
504
505
506
507
508
508
507
507
507
507
508
507
507
510
513
513
512
506
500
504
530
569
610
636
627
588
542
515
507
511
516
515
515
515
514
515
516
518
518
516
516
517
519
520
521
521
521
521
522
522
523
524
525
525
526
528
530
531
533
534
534
534
533
533
534
536
537
537
536
535
534
533
532
529
528
529
529
529
528
525
522
520
520
519
518
519
519
518
517
517
518
518
516
516
518
519
518
518
517
517
517
518
518
519
519
518
518
517
518
518
519
518
518
518
518
516
514
512
511
511
513
514
514
515
515
516
516
515
516
517
516
517
518
520
520
521
521
521
519
518
517
515
514
516
518
518
518
517
518
518
517
518
520
520
520
518
510
501
506
531
568
607
631
619
575
526
502
498
503
508
511
512
512
511
511
511
512
512
512
513
513
512
511
511
512
514
516
517
518
520
522
523
524
527
530
528
526
527
528
531
533
536
537
538
539
541
542
540
539
538
536
535
535
535
533
530
528
524
520
517
513
511
509
509
508
506
505
504
503
502
502
501
501
499
498
498
499
500
502
503
504
505
507
510
511
511
513
514
513
511
513
515
514
512
511
512
512
512
515
517
516
518
519
519
517
516
515
514
512
511
511
510
509
509
508
507
508
509
507
506
505
505
505
503
501
493
482
488
516
556
598
621
606
563
519
497
492
496
499
499
499
495
488
483
480
480
482
484
486
487
489
492
495
498
500
501
502
503
504
507
507
506
506
507
509
510
512
513
513
513
514
518
519
519
521
524
525
524
523
523
520
517
516
515
512
510
508
506
502
499
498
497
495
494
492
492
490
489
489
488
489
490
491
491
491
491
492
491
493
496
496
496
497
499
501
501
500
500
502
503
504
505
505
506
505
506
507
507
507
508
508
507
507
505
502
500
498
498
499
500
500
499
500
500
500
500
500
502
500
492
483
484
506
542
586
622
622
583
531
499
488
490
494
498
500
503
504
504
504
505
507
509
510
512
513
515
516
518
519
519
517
515
514
514
514
513
513
513
513
513
514
514
515
517
520
520
521
522
524
522
523
524
525
525
526
526
524
521
520
518
514
511
511
509
505
506
506
508
508
508
509
509
509
509
509
508
507
507
507
507
507
506
505
503
503
505
504
500
500
500
500
498
496
497
497
496
497
499
499
501
503
503
502
500
499
498
495
492
491
490
488
488
488
487
487
489
490
490
489
490
490
488
483
475
469
483
516
556
593
602
574
527
487
470
467
471
473
475
479
482
483
485
486
486
486
487
489
491
490
489
489
489
489
489
487
487
485
485
485
485
485
487
490
491
493
495
497
501
503
503
503
502
504
506
508
508
508
508
507
505
504
503
502
500
499
496
493
490
489
488
486
486
488
489
490
490
491
490
488
487
488
488
487
485
485
484
484
486
488
489
490
490
490
489
489
490
492
493
496
499
502
502
504
507
506
505
505
506
507
508
506
504
501
500
500
502
501
501
501
502
502
504
505
506
506
502
494
488
499
530
567
603
617
596
554
514
494
488
487
490
492
494
496
496
498
501
503
505
507
510
512
511
512
512
511
514
515
516
517
520
522
524
525
527
528
528
527
528
528
528
528
530
531
531
530
531
531
529
529
529
528
526
524
523
523
521
519
518
516
512
509
509
508
507
506
506
505
505
507
507
506
506
509
510
510
511
512
513
513
514
514
512
510
508
507
507
508
507
507
506
504
503
502
500
498
499
500
500
500
501
504
508
510
512
514
515
516
516
516
516
516
516
514
512
511
510
509
509
510
508
508
509
510
511
510
510
512
509
501
494
501
528
564
602
623
609
570
528
505
500
504
507
507
505
507
509
510
510
512
514
516
517
516
517
519
521
524
525
525
526
526
525
525
526
527
528
528
530
534
538
540
542
545
546
547
546
545
545
546
548
550
550
550
550
549
545
543
541
538
534
532
529
526
524
522
520
518
515
514
512
510
509
510
511
511
511
512
513
511
510
509
508
507
506
506
506
506
508
510
511
513
513
513
511
509
509
512
513
513
514
514
513
513
511
510
509
509
509
507
507
509
511
511
512
514
514
514
517
521
524
523
523
522
520
519
517
517
517
517
516
514
511
510
510
509
508
507
507
508
505
497
487
489
512
550
592
621
613
574
527
500
495
500
504
504
502
502
501
500
500
500
500
501
503
505
507
508
509
510
509
509
510
512
511
511
512
514
515
516
517
518
520
521
522
522
521
521
522
523
524
525
526
525
525
526
526
526
525
524
521
518
517
517
516
514
514
513
512
511
510
511
510
509
508
508
508
507
507
507
507
506
504
503
502
503
503
502
502
503
504
503
502
504
506
506
505
505
504
503
502
502
502
502
503
504
506
507
507
506
506
506
508
511
511
510
510
510
510
510
512
513
513
514
513
512
509
509
510
511
510
508
506
504
502
502
501
499
498
497
497
497
498
498
499
499
501
502
502
501
498
490
489
505
537
575
603
604
573
530
501
492
491
494
497
499
502
505
508
510
512
513
515
518
520
521
522
523
523
521
519
519
520
521
524
528
530
531
531
532
534
535
536
539
541
543
544
545
546
546
546
546
544
543
543
544
543
543
542
540
537
534
532
531
528
527
528
526
525
524
524
524
523
524
525
525
524
524
524
523
523
523
524
523
523
524
523
520
518
517
514
512
511
511
510
509
509
508
506
504
505
506
506
505
505
506
506
507
508
511
512
513
512
511
511
511
512
510
508
508
508
508
508
507
506
504
504
505
506
505
507
510
512
512
512
510
507
505
507
507
505
504
504
504
502
499
499
500
501
503
505
506
504
504
505
507
507
509
510
507
499
494
510
540
577
611
620
592
547
510
494
490
494
498
500
501
503
504
504
503
503
503
504
504
506
507
507
508
509
509
508
508
509
509
509
509
511
511
510
511
511
510
508
508
510
511
512
515
515
515
515
515
516
516
516
516
514
512
510
508
506
504
503
501
499
498
499
498
497
497
498
497
496
497
498
500
501
504
506
505
505
506
506
506
505
505
505
503
501
503
503
503
502
502
503
502
502
501
500
500
500
501
502
501
501
501
501
500
500
499
498
497
497
498
499
501
503
505
504
503
502
502
501
503
505
506
507
509
511
511
511
511
512
513
513
512
511
509
508
508
507
506
506
506
505
504
506
507
507
507
507
503
494
490
507
541
582
618
626
596
549
514
501
499
500
505
509
511
514
517
518
517
516
515
514
512
512
513
514
513
513
514
516
516
518
521
524
524
526
528
528
529
531
533
533
535
536
538
538
538
538
538
536
535
535
535
533
532
530
528
525
522
521
519
518
519
519
518
517
517
515
514
514
514
515
514
513
514
515
514
514
514
515
514
514
514
514
514
514
513
512
512
512
513
511
511
509
509
509
510
511
511
511
510
511
510
510
512
514
514
514
514
516
515
515
516
517
516
516
517
518
517
519
520
520
519
518
520
521
521
520
520
520
520
520
519
517
516
516
517
515
513
511
510
508
508
507
505
504
505
506
505
505
504
500
489
482
493
523
562
600
618
597
550
508
489
484
486
490
493
495
495
495
496
496
498
500
501
501
502
502
503
502
502
501
501
501
502
503
505
506
508
510
512
512
514
518
520
521
522
524
525
525
525
524
523
523
523
522
521
521
521
520
517
513
509
506
504
502
502
500
498
496
495
494
494
493
493
492
494
495
494
495
496
496
497
498
500
503
503
504
503
503
502
502
502
503
501
502
503
504
505
505
506
506
505
506
507
507
506
506
508
508
509
509
510
509
509
510
510
509
508
507
507
508
509
511
512
512
513
514
514
516
518
518
517
517
518
519
519
520
520
520
518
516
515
515
514
515
515
514
513
512
511
506
498
490
497
524
563
605
630
618
576
530
504
495
495
498
501
502
504
506
506
506
507
508
508
508
508
509
510
510
512
513
514
515
518
521
523
525
527
528
530
531
534
534
535
537
539
539
539
539
539
540
540
540
540
538
537
537
535
533
531
528
524
521
519
518
516
515
515
516
516
517
517
517
515
516
516
517
516
517
517
516
516
517
518
517
517
518
518
516
515
515
516
516
518
519
519
518
517
516
513
512
512
513
513
513
513
513
513
513
514
514
513
512
512
512
511
512
514
515
514
514
515
516
515
512
513
514
515
516
516
514
511
508
505
501
499
498
499
499
500
500
500
498
499
498
497
497
498
495
488
483
496
527
567
607
624
603
558
515
494
489
489
493
494
495
495
495
497
497
496
497
499
500
502
504
505
504
504
507
510
510
508
508
510
510
511
512
513
512
513
514
516
517
520
522
523
523
523
524
524
524
524
524
521
519
517
516
514
513
512
511
510
509
508
505
503
502
500
498
498
499
499
500
502
504
505
504
506
507
506
505
505
505
504
502
501
501
500
501
503
504
504
505
506
506
505
504
504
503
502
503
503
503
502
502
501
500
501
501
501
502
505
505
505
502
501
501
501
499
499
499
498
496
496
496
495
495
496
496
495
495
497
498
494
486
482
495
526
565
601
614
589
545
506
487
480
481
484
486
488
490
491
492
493
496
497
498
498
500
502
503
504
504
504
503
503
505
507
507
508
509
511
512
514
514
514
515
517
518
519
520
523
525
525
525
527
528
528
527
526
525
523
522
520
518
517
516
515
514
514
515
516
515
514
513
512
510
510
511
513
513
513
513
511
510
512
514
514
513
513
514
513
511
511
510
510
512
512
511
511
513
515
516
516
516
516
516
515
515
515
516
516
518
519
519
519
518
520
522
524
524
523
522
522
521
520
518
516
515
515
514
513
511
509
508
509
508
507
507
507
503
494
488
499
529
568
607
626
607
563
519
496
491
494
499
501
502
502
503
502
502
503
504
505
506
508
509
511
510
510
511
509
508
509
510
511
511
513
514
514
516
519
521
523
525
527
528
529
530
531
531
531
532
533
532
530
531
531
530
527
525
523
520
518
517
517
518
518
518
516
513
512
512
511
511
512
514
514
514
512
510
509
509
508
507
505
505
504
504
504
505
505
505
503
503
503
503
502
502
501
499
499
500
502
501
501
501
503
503
503
504
504
504
504
504
503
503
502
502
501
501
502
504
503
503
504
505
504
504
505
505
504
503
502
501
499
498
497
496
496
498
499
499
500
501
501
499
496
490
482
486
512
550
590
615
607
569
525
498
490
490
492
493
494
495
495
494
494
496
497
499
501
503
503
505
507
508
510
511
512
510
510
511
513
512
512
512
513
513
514
515
517
518
520
522
524
525
528
529
530
529
529
531
530
530
529
529
528
528
527
525
522
521
520
517
513
511
510
509
508
508
508
508
508
508
509
509
508
507
507
507
507
507
506
505
504
505
506
504
505
505
505
504
506
507
507
506
506
504
503
503
503
503
502
501
500
501
500
499
499
498
496
495
494
494
493
495
495
496
497
500
503
504
503
503
504
504
504
506
509
509
509
508
508
506
506
504
503
501
501
500
499
500
502
503
502
501
500
500
500
498
492
485
488
513
551
592
619
614
577
532
503
494
494
496
497
499
501
502
502
503
504
504
506
507
509
510
512
515
517
519
520
521
521
521
521
521
522
524
527
528
528
529
531
534
534
533
533
533
532
532
533
534
535
533
532
528
525
524
522
519
518
515
513
510
509
508
508
507
508
507
506
505
505
506
506
506
507
509
509
508
508
508
508
507
508
507
505
505
505
506
506
507
508
509
508
508
510
510
510
510
512
515
516
516
516
515
514
513
513
512
512
512
511
508
507
508
508
508
507
506
504
503
504
506
508
509
509
509
509
509
510
511
511
513
515
515
515
514
513
511
509
509
509
508
507
507
506
504
503
503
502
502
502
503
504
502
498
491
492
512
545
584
613
612
581
537
505
494
495
501
503
504
505
506
507
507
509
511
510
510
510
511
511
511
512
512
513
514
514
513
514
515
516
516
517
519
521
523
524
525
526
528
531
533
535
535
536
535
535
534
533
532
529
526
524
521
518
516
517
516
514
514
514
513
513
514
515
515
514
513
515
516
516
516
517
516
515
515
515
516
516
516
517
518
518
520
520
519
518
517
516
515
514
514
514
515
515
515
513
513
513
513
513
514
514
514
514
516
518
518
516
516
516
515
515
514
515
514
513
512
513
513
512
514
513
511
513
516
518
518
517
517
518
517
518
518
517
517
516
515
514
514
514
514
512
512
512
512
511
510
508
508
508
506
502
494
491
506
537
575
608
619
594
550
514
497
492
492
494
495
496
498
498
498
497
499
502
502
502
504
505
506
505
505
507
508
508
509
509
507
505
505
506
507
509
512
516
518
518
520
522
522
523
523
523
523
524
526
527
525
523
521
520
518
516
514
513
510
508
506
505
504
503
503
502
502
503
503
503
503
504
504
504
505
505
504
503
504
505
505
504
503
502
502
503
504
504
505
506
505
505
503
502
501
498
495
492
491
490
489
491
493
493
493
495
496
497
497
497
499
499
500
500
500
499
498
498
498
497
497
498
499
499
501
503
504
504
504
506
505
504
504
506
507
508
509
510
508
508
508
508
506
505
505
504
503
504
505
506
506
507
507
507
508
506
498
492
503
533
569
600
611
591
551
514
495
490
488
490
492
494
495
497
499
500
501
503
505
505
505
508
509
510
510
511
513
516
517
518
520
520
521
523
524
523
522
520
519
518
519
520
520
518
516
515
512
511
511
513
514
512
511
510
509
506
503
501
497
493
491
492
492
493
493
493
493
494
494
495
494
494
495
495
497
499
500
499
498
499
500
500
501
503
504
504
504
504
504
503
504
503
502
501
501
500
500
501
503
503
503
503
504
504
503
503
505
506
505
506
507
508
508
510
510
510
509
509
508
507
507
507
507
508
508
508
508
509
509
510
511
511
511
510
508
505
501
498
496
495
495
496
499
499
499
499
499
499
500
497
491
491
507
538
574
606
612
587
545
510
494
488
490
494
495
497
499
500
501
502
505
506
506
506
507
509
512
511
512
513
515
515
517
520
521
520
520
521
521
523
526
530
530
531
533
535
535
536
539
540
539
537
536
535
534
532
531
529
528
527
524
520
518
516
515
514
514
515
515
515
514
514
516
517
520
520
520
520
521
521
520
519
517
517
515
516
518
519
518
519
520
521
522
522
523
523
521
520
519
518
518
518
518
518
518
517
515
513
511
511
509
507
506
506
507
507
507
507
506
507
507
508
508
509
511
512
512
510
508
506
504
503
503
502
502
503
505
504
502
501
499
497
497
499
500
497
492
486
485
502
533
567
596
600
575
535
501
487
483
486
489
490
492
493
492
494
495
496
495
494
494
496
497
499
501
503
504
507
510
514
516
519
520
520
521
521
522
523
525
527
528
528
529
531
531
529
528
528
528
526
525
525
524
522
519
518
516
516
516
515
512
510
509
508
507
508
509
511
510
511
513
512
511
511
513
513
513
512
513
513
514
515
515
512
510
509
510
510
509
507
505
504
506
507
506
506
507
507
507
507
509
509
507
507
507
508
507
508
508
509
508
508
508
510
510
513
516
518
517
516
516
517
517
517
517
516
514
512
512
510
509
508
507
507
507
509
510
510
511
513
513
512
512
508
500
499
518
551
587
614
617
590
548
516
502
502
506
510
511
511
510
509
510
510
510
510
510
509
509
509
508
506
508
511
514
516
519
521
521
521
523
526
527
528
529
530
530
530
531
533
534
534
533
534
534
535
535
534
532
531
530
527
524
522
519
517
515
514
514
514
513
512
511
509
509
511
512
511
511
510
509
509
510
510
510
509
508
508
507
507
508
508
507
508
506
505
503
501
500
500
499
498
500
502
503
504
505
505
503
504
505
505
505
506
509
510
509
509
509
509
509
510
509
508
510
512
512
511
512
512
511
509
507
504
503
501
500
499
498
497
497
497
498
499
499
500
497
492
484
485
508
543
582
608
601
567
524
496
486
488
491
491
493
494
494
494
496
497
496
497
499
500
500
500
501
501
499
499
501
505
507
509
513
515
517
518
520
519
519
522
525
527
527
529
530
529
528
528
528
526
525
524
523
522
520
517
514
511
509
508
507
506
505
504
501
499
499
500
500
499
498
499
499
500
502
503
502
502
503
503
502
502
502
502
502
502
504
505
505
506
508
508
508
508
508
507
509
510
511
510
510
511
513
513
513
513
512
511
513
514
515
515
516
515
513
511
510
510
509
508
508
509
509
508
507
507
506
506
508
509
509
510
509
509
509
509
509
507
508
509
508
505
505
505
505
503
502
504
506
504
499
491
489
507
542
583
615
616
582
535
503
492
494
499
500
501
501
501
501
502
503
504
504
505
504
503
502
502
504
504
506
508
511
511
511
511
511
511
512
514
515
517
518
521
523
524
524
525
527
528
528
527
527
527
528
529
528
526
524
523
521
519
517
515
514
512
510
509
508
508
507
505
503
504
504
504
504
505
506
507
508
508
508
508
508
509
508
507
508
508
508
507
507
505
504
505
505
505
503
502
503
503
502
501
500
500
499
500
501
500
499
500
500
500
500
502
503
502
502
504
506
508
512
514
514
513
514
514
513
512
514
515
515
513
510
508
507
506
506
508
509
509
508
509
509
509
510
512
509
501
495
508
537
573
606
616
592
550
510
491
485
485
487
489
493
499
500
499
500
501
502
501
503
505
507
506
507
510
512
513
515
516
517
516
517
518
518
519
520
521
520
521
523
526
527
528
529
528
529
530
530
530
529
530
530
529
526
523
521
518
515
514
513
511
508
507
506
504
504
503
503
503
503
504
506
506
506
506
507
507
508
509
508
507
508
508
507
508
508
505
504
502
500
499
500
501
500
500
499
500
500
500
499
500
500
500
501
502
502
502
502
502
502
503
505
504
502
502
504
506
505
506
506
506
505
503
503
503
503
502
503
503
502
502
501
501
499
498
498
496
489
482
489
513
547
581
599
588
553
515
493
485
483
486
488
489
492
497
499
498
497
499
499
501
502
503
503
503
503
503
502
503
505
505
505
505
506
508
509
510
513
513
513
514
516
515
515
517
520
520
521
522
522
521
521
521
520
518
517
515
514
512
512
510
508
506
506
504
501
500
500
498
496
496
498
501
501
501
502
502
502
502
501
500
501
502
502
500
501
506
508
508
509
510
510
507
506
506
507
506
505
505
504
503
504
505
504
503
503
502
501
501
502
503
503
504
505
505
505
507
508
510
509
511
512
512
511
511
509
508
507
507
506
504
504
504
502
499
498
498
497
493
487
480
488
515
554
590
608
591
552
510
487
480
481
483
485
486
487
488
489
490
492
493
495
499
500
501
502
503
503
503
503
504
506
508
511
515
518
521
524
526
526
527
528
529
530
533
536
537
537
537
537
537
536
535
535
534
532
529
527
525
522
520
518
516
516
516
517
515
513
511
509
508
509
510
511
510
510
511
510
509
510
511
511
510
509
508
506
504
503
504
503
502
503
502
501
500
500
499
497
497
497
499
498
499
499
500
501
503
504
506
507
507
508
510
512
514
516
516
517
517
517
517
519
520
519
518
518
518
518
518
518
517
516
514
514
514
512
511
511
511
511
510
508
507
503
497
497
518
550
587
617
619
589
546
515
503
501
506
510
510
511
512
514
513
513
514
515
517
518
519
520
519
519
520
521
521
522
523
522
523
525
526
527
529
533
536
537
537
539
541
544
547
549
550
553
556
557
557
557
556
553
550
547
544
542
539
537
535
531
527
523
521
520
520
520
519
519
520
520
520
519
517
516
516
514
513
512
512
510
510
512
513
513
515
515
517
519
521
522
521
520
521
521
522
521
521
523
523
523
523
522
519
519
518
519
518
519
520
520
521
523
524
524
521
521
520
518
517
518
520
518
516
514
513
510
508
506
504
501
497
495
494
493
493
493
493
494
494
495
495
496
494
484
474
480
505
541
578
598
584
542
496
471
464
465
467
469
471
472
473
474
475
476
477
477
477
477
478
480
481
482
482
484
487
488
489
490
492
493
495
496
496
499
503
506
507
508
509
510
512
515
517
516
515
516
516
516
516
515
514
510
508
506
506
504
502
501
502
501
500
499
499
499
498
499
500
500
501
503
503
503
503
503
504
503
503
504
505
504
505
507
508
509
510
511
512
512
514
512
511
511
512
511
509
508
509
507
506
507
507
507
508
509
510
510
512
514
514
513
514
515
514
514
517
519
519
518
517
515
511
509
509
508
506
506
507
507
507
509
510
511
512
514
516
515
513
508
502
505
528
562
599
622
616
583
540
511
501
501
503
503
504
505
506
505
504
504
503
503
504
505
504
504
505
507
508
509
511
511
510
511
512
513
514
517
520
521
522
525
528
528
529
532
532
529
530
531
530
528
528
528
528
529
529
528
525
522
520
519
518
517
517
517
515
513
510
509
509
510
511
512
513
514
514
515
514
513
511
509
508
508
507
505
504
503
502
501
500
499
498
497
496
496
495
493
493
494
495
496
496
496
496
498
500
501
501
500
501
502
502
502
502
503
503
504
505
506
505
507
510
511
512
514
515
517
518
518
520
520
521
522
521
520
519
518
518
518
518
517
515
514
514
514
514
514
514
510
501
495
507
537
577
616
631
609
565
526
508
501
502
505
506
506
507
509
509
509
510
511
514
515
515
516
518
519
520
521
520
520
520
521
521
520
518
517
516
516
518
519
519
518
519
520
521
521
521
520
518
516
515
513
511
510
510
510
508
507
507
506
504
502
500
498
497
497
497
497
498
500
500
499
498
499
499
499
500
501
502
502
502
502
502
502
502
503
503
502
502
501
499
500
502
502
502
502
503
502
501
502
502
501
500
499
500
500
499
497
496
496
497
499
500
500
500
500
501
502
503
503
500
500
503
504
502
500
500
501
502
503
505
506
506
506
506
506
504
504
504
505
506
506
506
506
502
495
488
494
521
557
595
616
604
566
524
497
490
493
498
500
502
503
503
503
504
504
503
503
504
506
506
507
509
508
507
509
511
513
515
515
517
518
519
521
523
524
524
526
529
532
533
534
536
536
538
540
541
538
536
534
534
532
531
529
528
525
523
521
520
518
517
517
517
516
515
515
514
512
510
508
506
506
506
508
508
508
509
508
506
506
507
506
506
505
505
505
506
507
506
505
504
503
504
503
504
505
506
506
507
508
507
507
510
513
513
513
512
511
508
507
507
507
507
508
511
513
514
515
516
516
516
518
519
519
518
517
514
513
512
511
511
510
508
506
504
502
502
502
501
499
499
499
498
492
486
490
512
548
588
615
607
568
523
495
485
484
488
490
492
495
498
499
499
498
498
498
500
501
503
504
504
505
507
508
508
509
509
507
507
509
510
510
511
513
514
514
516
519
520
521
522
525
528
530
531
532
532
530
527
525
520
517
516
515
513
513
513
513
510
510
511
513
514
513
514
515
516
516
516
515
514
513
513
513
514
515
514
513
514
514
514
513
514
515
516
515
514
514
513
513
513
513
513
513
513
513
511
512
513
511
509
509
510
510
509
509
508
508
508
509
511
511
511
510
510
509
510
512
514
513
513
512
510
508
507
507
506
504
505
506
507
507
509
510
509
509
510
511
512
513
512
507
497
495
514
548
586
616
622
594
550
518
503
500
503
506
507
507
509
510
511
509
509
508
508
507
506
507
506
505
506
508
509
511
514
515
514
515
516
518
519
520
521
522
522
524
525
525
524
524
526
527
526
525
524
522
523
523
523
520
518
516
512
508
506
505
502
501
500
499
497
496
495
495
497
497
497
496
495
494
494
492
490
489
490
492
492
493
495
496
496
495
495
494
494
493
493
493
494
495
496
495
495
495
496
495
496
498
498
497
498
500
501
500
500
501
501
503
505
504
502
502
502
504
504
506
508
508
507
507
506
505
502
501
499
497
496
498
498
497
496
496
496
496
495
492
488
480
472
478
504
541
581
605
591
550
505
481
474
475
479
481
482
482
484
485
486
486
487
486
485
486
488
489
490
492
494
496
497
499
502
503
505
510
518
524
529
532
535
537
539
540
540
540
540
540
541
542
542
541
540
538
537
536
533
532
531
528
524
520
519
519
518
517
516
515
513
513
514
514
513
514
515
515
514
514
513
511
509
507
505
504
505
507
508
509
510
510
511
510
510
509
508
507
505
506
506
507
508
509
510
512
513
513
512
512
511
512
513
516
517
518
518
520
520
520
520
519
520
519
519
519
519
518
518
518
519
519
518
518
517
516
515
513
508
499
495
510
540
577
609
619
592
549
512
497
493
495
498
498
499
501
502
502
502
502
503
503
504
504
505
505
505
504
504
505
506
508
509
507
507
508
510
510
511
513
514
515
517
520
521
521
523
524
524
524
523
521
519
517
517
514
511
509
508
507
504
502
501
498
497
497
497
496
495
495
496
496
498
500
500
500
501
501
501
500
501
502
502
502
502
503
504
504
505
507
507
508
508
508
508
506
504
505
505
504
503
505
506
506
507
506
507
508
510
511
512
511
513
511
512
514
517
518
518
518
517
516
517
518
517
515
513
512
510
508
507
508
507
507
507
507
508
507
500
491
489
509
542
579
608
608
577
533
501
488
488
492
494
496
498
497
498
499
501
503
504
505
506
507
509
510
509
509
509
509
507
508
509
509
510
512
516
518
519
520
523
526
527
527
529
531
530
529
529
528
528
528
526
525
524
522
521
521
520
519
519
518
516
515
514
511
511
512
511
510
510
511
511
510
510
509
509
510
511
512
513
513
514
514
513
511
511
511
509
508
508
507
504
503
504
504
504
504
504
504
504
504
505
506
507
509
508
506
506
507
509
509
509
510
509
508
510
513
514
514
514
514
514
514
514
513
512
512
513
511
510
508
506
505
504
505
506
507
507
502
493
486
497
528
569
606
622
601
557
513
492
487
489
491
492
493
495
495
496
497
498
499
499
500
499
499
499
499
498
498
500
503
504
506
508
510
512
515
516
516
516
518
520
521
523
526
528
528
529
530
530
530
530
530
529
527
525
523
522
519
517
516
516
515
513
512
508
506
505
505
505
505
505
505
504
504
503
504
504
505
505
505
504
504
503
503
502
502
501
501
501
501
502
501
500
501
502
501
501
502
503
503
504
506
507
508
509
509
507
506
506
506
507
508
509
510
509
510
511
511
511
512
514
514
513
511
510
509
507
506
505
503
502
502
503
502
502
503
502
500
495
486
485
505
541
584
618
620
589
543
507
493
492
498
503
504
505
506
506
507
507
508
507
508
508
508
508
509
508
508
508
509
510
511
513
515
517
524
530
535
537
539
541
543
544
544
546
547
547
548
549
550
549
548
546
544
541
538
536
533
529
526
524
522
519
518
518
517
515
514
515
515
516
516
516
516
514
515
515
512
510
510
511
510
511
513
514
514
515
516
515
514
513
512
511
508
507
507
506
504
504
504
504
505
505
506
506
507
509
509
509
511
514
514
512
515
516
514
512
512
512
511
510
510
509
508
507
508
509
507
505
503
504
505
506
506
505
502
496
489
488
508
544
584
613
610
577
531
498
485
484
487
490
492
495
497
497
498
497
497
497
497
497
496
496
497
500
501
502
502
505
505
505
506
506
507
509
509
509
511
515
517
516
516
516
517
516
515
516
518
518
518
517
517
516
514
513
511
509
508
506
504
503
502
501
501
500
500
500
499
499
501
504
503
503
502
503
503
503
501
500
500
502
503
504
503
503
503
503
504
505
506
506
506
507
508
507
507
507
506
507
507
508
510
510
510
510
509
509
511
513
513
513
513
512
511
511
511
509
505
503
502
502
502
502
502
503
505
505
504
501
498
492
485
490
516
556
596
618
607
569
524
499
491
492
496
497
498
500
501
502
503
504
504
504
505
506
506
506
508
509
508
508
508
509
511
514
515
515
515
517
519
520
522
524
526
526
524
524
525
525
525
526
528
528
526
526
525
522
522
521
519
515
514
512
511
509
510
510
508
508
507
507
506
506
506
505
505
508
510
510
509
509
508
507
506
505
506
505
504
503
504
504
505
506
505
503
503
506
507
505
505
507
507
507
509
509
508
508
509
507
506
505
505
505
506
506
506
508
509
509
509
508
506
506
508
509
508
506
505
504
503
505
506
505
504
503
503
503
504
503
498
488
481
496
526
565
603
616
591
544
504
487
484
488
489
488
486
486
487
488
488
488
489
490
490
489
490
491
492
495
496
498
500
502
502
502
503
506
506
507
509
511
512
511
512
515
517
518
518
520
520
520
521
521
520
520
520
519
517
517
517
516
515
514
514
513
511
511
510
509
508
509
509
507
507
508
509
508
508
509
510
511
511
511
511
512
513
515
515
513
511
512
512
511
510
510
511
510
510
511
510
510
510
511
512
512
512
512
512
513
513
513
512
511
510
508
505
505
505
504
504
507
508
507
508
509
508
507
505
505
505
505
506
506
505
503
503
503
503
503
503
503
502
502
505
505
505
502
494
488
500
532
573
609
620
596
552
513
495
492
494
495
495
495
496
498
499
500
499
498
499
501
501
502
504
506
506
506
507
508
509
510
512
513
514
514
513
513
514
517
520
522
523
525
525
525
525
524
525
525
524
524
524
523
521
519
515
511
507
505
503
501
500
500
498
496
499
501
502
501
502
502
502
503
505
507
506
505
505
503
503
503
505
506
507
508
508
507
505
506
506
507
507
509
509
508
508
507
507
508
509
510
511
509
510
510
508
506
507
508
508
508
507
507
507
508
508
509
510
511
513
513
511
510
511
512
512
512
512
512
510
510
509
508
507
507
509
510
508
507
507
506
501
495
492
506
537
575
608
614
589
549
515
500
498
501
502
502
503
505
505
505
505
505
504
504
505
506
506
505
506
507
508
508
508
509
508
510
512
513
514
517
519
521
521
522
524
525
527
528
529
529
528
527
527
526
527
526
525
523
523
523
519
516
513
511
510
509
508
508
507
507
507
508
507
508
508
507
506
505
506
506
507
507
507
506
505
505
505
504
503
503
502
501
501
501
501
500
500
500
499
498
499
500
501
501
502
503
503
503
503
503
503
505
506
507
506
505
505
503
501
500
501
502
504
507
509
508
507
508
510
511
513
513
511
509
508
506
506
503
503
502
501
501
502
503
504
505
505
505
504
504
500
492
488
502
533
569
599
607
585
546
511
497
494
496
499
500
502
503
504
504
504
503
502
502
502
503
504
504
504
503
504
504
503
502
503
503
504
504
505
506
506
508
511
513
512
514
516
517
516
517
518
519
519
519
519
519
517
516
515
513
510
509
508
505
503
503
504
504
504
503
504
503
502
501
501
501
501
502
503
504
505
505
504
503
503
504
504
506
507
506
507
509
510
509
509
510
510
510
509
509
509
508
507
506
505
504
504
506
505
504
503
505
505
505
505
506
507
506
507
509
509
509
508
509
510
510
511
511
511
513
516
516
514
513
513
512
510
509
509
507
506
507
510
512
512
512
512
512
513
513
512
509
505
499
500
519
552
590
619
617
584
539
507
495
495
499
502
504
506
507
508
508
507
508
510
513
515
516
515
515
515
515
515
516
515
514
514
516
518
520
522
523
524
525
526
526
527
528
528
528
528
528
527
528
527
525
523
523
522
519
517
516
513
510
509
508
504
501
499
497
495
496
497
498
498
499
499
499
499
499
500
501
503
503
503
503
504
507
508
507
508
508
506
505
503
503
502
502
502
502
503
502
503
503
503
502
502
502
504
505
505
505
504
504
504
504
502
502
502
501
500
501
500
499
498
498
499
500
501
503
506
508
509
510
510
509
510
509
507
505
505
506
506
504
503
502
503
503
503
503
503
504
505
501
494
493
510
541
575
602
606
577
534
499
485
483
485
487
489
490
491
493
494
494
495
497
498
498
500
503
504
504
503
504
505
506
508
512
514
514
515
516
517
519
521
522
521
521
523
524
523
523
523
524
523
523
523
522
521
521
521
520
519
518
516
514
512
510
509
507
506
506
505
503
503
504
503
503
504
504
505
505
506
505
504
505
506
506
506
507
509
510
509
509
509
509
509
509
509
509
510
511
512
511
510
510
510
509
506
506
506
503
501
500
499
500
502
503
503
503
503
503
503
502
502
502
502
503
506
508
508
507
508
509
509
508
508
509
509
510
509
507
506
506
507
506
505
505
504
504
503
501
500
500
500
496
491
496
520
555
588
607
599
564
522
496
489
491
493
492
494
498
500
500
500
500
499
500
501
502
502
504
505
506
507
509
511
511
512
513
514
514
515
516
518
521
523
524
526
528
531
533
535
536
537
536
536
536
536
535
532
530
527
524
521
519
518
516
514
511
510
509
508
508
509
508
506
504
504
504
505
506
507
508
509
511
512
511
511
510
509
508
506
505
502
499
498
498
498
497
497
497
498
497
498
497
497
499
501
502
503
503
504
505
504
505
506
507
506
506
506
505
505
506
507
507
507
508
508
507
507
508
510
508
507
507
507
505
505
505
504
501
499
498
498
498
499
499
499
498
497
498
497
495
489
484
488
513
547
582
603
596
563
522
496
487
488
491
493
496
499
501
503
505
507
507
507
506
507
508
510
512
514
514
515
514
515
514
513
513
514
515
515
518
518
519
520
521
522
523
526
527
527
527
526
526
524
525
524
523
523
523
522
521
519
517
515
514
513
512
509
506
506
506
506
506
505
505
505
505
505
506
508
508
508
508
507
508
510
510
510
511
513
513
512
512
511
510
510
510
511
512
512
513
513
512
512
513
512
510
510
510
510
509
509
511
512
511
511
512
512
512
511
510
510
510
512
513
512
512
514
515
514
514
513
511
511
511
511
511
509
509
508
508
508
508
509
510
511
511
510
507
503
496
496
515
546
580
605
604
575
536
507
496
496
501
503
504
506
508
508
508
509
510
511
512
513
515
515
516
517
516
515
515
514
513
512
514
514
514
514
515
516
518
520
523
525
526
526
527
528
528
528
530
531
530
531
529
528
526
524
523
521
518
516
514
511
510
509
508
508
506
507
509
509
509
507
507
506
506
506
505
505
507
508
509
510
511
512
510
510
509
510
510
510
511
510
510
509
509
507
506
506
507
506
505
504
505
505
505
506
506
507
508
511
515
515
515
516
517
518
518
519
519
518
517
516
514
511
508
506
503
501
501
500
500
500
501
502
502
503
500
493
486
497
527
563
597
611
590
549
510
493
489
491
495
498
501
502
503
503
504
504
507
508
508
509
511
512
514
515
516
517
517
516
516
516
515
513
512
512
512
513
514
516
518
519
521
523
523
526
528
529
530
532
533
533
531
529
525
521
518
515
511
508
506
505
502
498
495
494
493
492
492
493
493
493
493
494
492
492
493
494
494
495
497
498
499
500
502
504
504
504
505
505
505
504
502
501
501
502
503
502
502
502
503
504
506
506
505
503
503
503
503
501
500
499
498
496
495
494
492
489
490
492
494
497
498
497
491
482
484
505
538
574
600
594
560
520
495
487
488
491
494
496
498
499
499
498
499
499
499
499
499
500
500
500
499
499
498
499
502
504
504
504
506
507
507
508
511
514
515
517
518
518
519
522
524
523
522
520
520
517
515
514
511
509
508
507
507
505
504
504
503
502
501
501
501
499
498
499
499
500
500
501
500
501
502
502
502
503
504
505
504
503
504
504
502
501
500
500
499
498
497
497
496
496
496
494
492
491
489
487
487
487
485
483
482
482
480
477
475
473
471
470
470
469
468
466
464
462
459
457
456
454
448
440
436
448
475
508
536
540
514
474
440
424
419
420
422
421
420
421
420
417
415
413
413
412
412
410
410
409
408
407
406
403
400
399
397
395
393
392
389
388
388
387
386
384
382
381
378
378
377
376
375
374
372
370
369
368
366
361
358
356
355
353
351
350
350
348
348
348
347
347
347
348
349
350
351
352
353
353
354
356
357
358
357
358
358
360
363
364
364
364
365
364
363
364
364
363
362
363
365
366
366
366
367
368
370
371
371
370
370
372
372
371
369
369
369
369
368
366
361
356
353
353
354
356
357
358
355
350
345
354
379
415
451
469
454
417
377
356
352
356
359
360
361
362
362
362
366
369
372
373
375
378
381
382
383
385
387
388
390
391
393
396
397
398
398
401
404
407
410
412
416
421
425
429
430
431
431
434
436
438
439
440
440
438
438
438
436
433
433
433
434
434
434
435
435
436
437
439
441
443
445
448
449
450
451
452
454
456
456
459
461
462
464
465
466
468
470
473
474
477
480
481
482
483
483
483
484
485
488
488
489
490
492
495
497
498
498
498
499
500
499
499
498
498
499
499
499
500
501
502
503
505
505
506
505
500
491
488
504
535
574
608
617
593
551
517
504
504
507
509
511
512
512
514
515
516
517
519
522
524
526
529
532
534
537
540
541
541
542
543
544
544
546
548
549
549
550
551
551
552
555
557
559
560
560
562
562
563
564
566
567
568
568
565
562
559
557
556
555
554
553
552
553
553
552
551
552
552
552
553
553
554
554
554
554
553
551
550
552
555
553
552
553
555
555
556
557
558
559
560
559
558
558
558
558
557
557
558
559
558
556
556
555
554
554
556
558
558
561
566
570
572
573
576
578
579
579
579
579
578
577
576
573
572
572
571
570
567
565
564
562
561
562
563
561
559
553
543
543
563
595
631
657
653
619
574
546
538
541
545
548
550
551
550
550
551
552
552
552
552
552
552
555
555
552
550
550
552
555
556
558
558
558
559
560
561
563
566
567
567
567
568
569
570
571
572
572
570
571
572
572
571
570
569
569
568
567
566
564
562
561
559
557
556
555
555
555
554
555
557
557
557
557
557
556
555
556
556
555
556
556
556
554
554
554
552
550
548
547
546
546
545
544
542
542
543
542
542
542
543
542
541
541
541
540
541
541
542
543
544
544
543
541
541
542
542
544
545
546
546
545
546
546
545
544
543
541
539
537
537
536
535
535
535
534
532
531
530
530
527
526
526
524
516
507
512
536
571
608
630
618
578
534
509
502
504
509
512
512
514
514
515
515
516
518
518
519
520
522
521
522
523
525
526
526
527
527
529
530
531
531
531
532
534
536
537
538
539
540
541
542
542
543
544
545
545
545
543
541
540
538
538
537
535
532
530
528
525
523
521
520
520
520
521
521
521
520
520
520
519
518
519
520
520
521
521
522
521
520
521
521
518
516
517
518
519
520
522
521
519
519
519
519
518
518
519
519
520
519
519
517
517
516
515
515
515
516
516
516
518
519
519
521
523
524
524
525
526
526
524
523
521
518
517
517
516
516
516
516
517
518
518
520
521
520
514
505
503
522
557
598
632
633
598
550
519
507
508
512
514
515
514
513
511
511
513
516
518
520
521
521
522
524
525
526
527
528
530
531
532
533
534
533
534
536
537
537
538
539
539
538
539
539
539
538
537
538
539
539
539
539
538
536
537
535
531
527
525
522
519
517
515
513
511
512
512
511
509
509
510
510
510
510
511
511
512
512
512
511
510
510
511
512
514
514
511
508
507
507
507
506
507
509
509
510
512
512
512
512
514
514
512
511
509
507
504
503
501
498
496
496
497
497
497
497
497
496
496
495
495
494
490
482
477
490
521
557
588
592
563
521
488
475
474
477
480
482
483
484
484
484
486
488
489
490
491
490
488
487
487
486
484
484
485
485
485
486
487
489
492
494
496
497
500
501
503
505
507
510
512
512
514
514
513
512
511
510
507
504
503
503
501
499
498
496
494
494
495
496
495
496
495
496
495
495
494
492
493
495
497
498
498
498
499
500
501
502
502
501
500
499
498
497
496
498
499
500
501
502
504
507
509
510
508
508
511
513
512
512
513
513
512
511
510
509
507
506
506
505
505
506
507
507
506
507
508
507
503
495
489
498
528
563
597
609
590
552
517
498
496
499
501
501
503
503
502
502
503
504
505
505
506
507
506
506
506
506
505
507
509
510
510
511
512
513
514
517
519
520
521
523
525
526
527
528
527
526
527
527
526
525
524
522
520
517
515
514
513
511
509
508
506
504
503
501
499
499
499
498
497
498
500
502
502
503
504
505
506
506
507
506
505
506
506
506
506
507
507
505
505
504
504
505
506
506
505
503
503
503
503
503
504
506
507
509
511
510
509
508
509
509
508
505
504
502
501
500
500
500
499
499
500
500
501
503
503
502
498
491
491
510
543
581
609
606
573
531
501
491
493
497
499
500
502
504
505
505
507
508
509
510
511
511
511
510
510
511
511
513
514
514
514
515
516
517
518
519
521
520
521
523
524
525
525
526
527
528
529
530
530
530
530
530
529
527
526
525
523
520
518
517
516
515
515
515
513
511
510
509
508
508
508
508
509
510
512
512
511
512
514
513
513
513
514
513
514
514
513
514
515
515
515
515
516
515
514
512
513
514
514
513
513
514
514
515
515
514
513
512
513
513
512
511
512
514
514
513
513
511
511
510
509
507
505
503
502
499
498
497
497
497
498
499
499
500
502
501
495
487
495
522
558
593
612
596
555
514
495
491
493
496
497
497
498
499
499
500
501
502
504
504
504
504
505
506
506
508
510
510
510
510
510
510
512
515
517
517
518
520
523
523
523
523
523
522
522
522
521
520
520
518
516
515
514
513
511
510
510
509
507
505
502
499
498
499
498
498
496
496
496
495
496
497
497
496
497
499
499
498
498
498
499
498
496
496
497
498
499
499
497
496
497
498
498
498
498
499
499
498
500
501
500
501
501
501
501
499
499
498
498
498
498
497
496
495
495
497
500
502
503
502
503
504
505
505
505
504
503
500
501
501
500
499
499
500
500
500
500
500
499
499
499
500
498
491
484
492
520
557
593
608
589
550
511
491
485
487
490
492
495
498
500
500
501
501
503
503
504
505
505
504
506
508
510
510
511
512
514
515
517
519
519
521
524
525
525
526
527
527
528
528
530
531
530
530
531
531
530
530
530
530
528
526
526
523
521
520
518
515
513
513
514
513
513
513
513
512
511
510
510
509
509
509
508
507
508
508
508
509
509
508
508
508
508
507
507
508
509
509
508
507
507
506
506
506
507
507
506
507
507
506
505
505
507
507
507
507
507
507
506
505
504
504
504
506
506
506
506
507
506
505
504
503
501
501
501
501
500
500
500
499
498
498
497
495
495
497
498
497
493
487
478
477
498
534
575
605
603
569
524
494
485
486
490
493
494
496
497
498
500
501
500
499
497
497
497
499
502
503
505
506
506
506
507
508
510
510
510
513
516
516
516
516
518
520
523
524
524
524
524
524
522
521
522
523
521
518
518
517
514
510
508
506
503
502
501
500
498
497
496
496
497
498
498
498
496
495
495
494
494
495
495
495
497
498
498
498
499
499
499
499
499
499
498
498
499
500
501
501
502
504
504
505
505
504
504
503
503
502
500
500
500
499
497
497
496
495
495
496
498
500
502
502
502
502
505
507
509
508
508
508
508
506
507
507
507
505
504
505
506
505
505
505
504
504
505
505
499
489
485
500
533
573
612
624
597
552
514
496
491
492
495
497
498
500
501
501
500
502
503
503
503
503
503
502
501
503
504
504
504
506
508
509
512
514
516
518
520
522
522
524
525
527
528
529
528
528
528
529
528
527
527
527
525
524
523
521
520
518
515
513
512
510
508
509
509
508
507
506
505
503
503
502
500
499
499
499
499
498
499
501
500
500
500
501
500
501
501
502
502
502
501
501
501
501
501
501
500
501
502
502
503
503
503
503
503
503
504
504
504
504
504
504
505
507
507
507
509
511
511
512
512
513
512
512
511
509
507
505
504
504
502
501
500
499
497
496
497
496
492
486
479
484
511
548
587
609
598
560
516
491
482
481
484
487
490
493
494
495
498
501
502
501
502
503
504
505
507
509
510
510
512
513
514
514
516
516
517
519
521
523
524
525
528
529
528
529
530
531
531
532
532
530
528
526
525
523
522
521
520
517
514
512
510
508
507
507
505
504
505
506
505
505
506
506
505
507
508
508
508
507
507
507
507
509
510
510
509
509
509
509
510
510
509
507
506
505
506
505
506
506
505
506
507
509
510
511
511
512
512
513
514
515
515
514
513
511
510
509
509
509
508
509
511
511
511
512
513
514
513
512
511
507
498
491
499
526
564
603
623
607
567
525
502
492
493
498
501
503
504
505
504
503
504
505
505
506
508
508
507
507
509
510
512
514
516
518
519
520
521
522
522
524
525
526
527
528
528
529
532
533
535
536
535
534
535
534
533
532
530
527
525
524
521
518
517
516
515
513
513
512
511
510
509
508
507
507
508
508
507
506
506
505
503
503
503
502
500
501
503
505
505
505
504
502
501
502
502
502
502
504
504
503
504
505
507
507
508
508
507
507
507
507
507
507
510
513
513
513
514
514
513
513
514
512
510
509
509
508
507
507
507
506
506
507
508
506
505
500
491
488
506
541
582
615
620
589
540
503
489
488
492
495
497
500
502
502
503
504
504
505
507
509
509
511
512
513
513
514
516
516
516
517
518
519
521
522
523
523
523
524
525
526
527
528
529
528
528
530
530
530
531
532
531
529
529
527
524
521
519
518
516
515
513
513
510
508
506
505
503
503
503
504
504
505
506
506
506
506
506
505
504
504
506
506
506
506
507
507
509
509
508
506
505
506
506
505
505
505
505
505
505
505
504
502
502
502
502
503
503
504
504
505
507
510
511
512
513
513
511
511
510
507
507
506
506
505
505
505
503
502
502
502
501
500
498
495
486
480
495
529
568
603
610
582
537
499
482
478
480
484
488
492
494
494
495
498
499
501
501
500
499
500
502
503
503
505
506
506
507
510
511
511
512
515
517
518
518
519
520
521
522
523
524
525
527
529
526
525
523
522
520
520
519
519
516
513
512
511
510
508
506
504
504
504
505
506
506
507
507
507
507
508
509
509
510
511
511
511
512
513
512
511
511
510
509
509
510
510
510
510
510
509
510
510
510
510
508
508
508
508
508
508
508
510
511
512
514
516
516
517
519
519
517
516
515
513
511
511
511
509
509
508
508
509
510
511
510
509
509
510
510
510
504
494
491
508
541
581
615
621
592
548
513
498
496
500
502
502
503
504
505
505
506
508
508
509
510
511
512
514
514
515
516
515
515
514
515
517
517
517
518
520
521
522
524
525
528
530
533
536
537
539
540
541
540
539
538
536
533
531
528
524
520
517
516
513
511
510
510
509
509
509
510
510
511
511
512
511
511
512
512
511
511
511
512
512
513
513
513
512
512
513
511
511
510
509
506
505
504
504
504
504
504
503
503
503
503
503
503
503
504
503
502
502
502
502
503
504
503
503
503
503
504
506
509
510
509
507
507
508
507
507
508
508
507
506
505
505
503
502
501
500
497
496
496
495
496
496
497
497
494
486
478
483
508
547
589
612
599
558
513
487
480
482
486
489
491
493
494
495
496
497
497
498
500
501
501
503
505
506
506
507
508
510
512
515
516
516
516
517
518
518
518
520
522
524
526
527
528
528
529
530
532
533
533
531
530
527
526
525
522
519
516
514
513
511
512
513
512
511
510
509
507
506
507
509
509
510
512
511
511
511
512
512
511
510
509
509
509
510
511
511
511
513
514
512
511
509
509
508
509
510
510
509
510
509
507
507
507
508
508
507
508
509
509
510
512
513
513
511
511
511
508
508
509
511
509
508
508
507
506
507
508
509
508
508
509
510
510
510
510
509
509
508
508
508
509
509
508
508
508
507
507
508
508
508
508
506
501
493
493
513
547
588
620
622
591
544
511
499
499
502
504
505
507
507
507
508
508
508
508
510
511
511
511
511
511
511
513
514
514
515
518
521
522
523
524
526
528
528
530
533
535
537
538
538
539
538
538
538
537
536
536
535
533
531
530
527
524
522
521
520
520
519
518
517
516
515
514
512
511
509
508
507
508
508
509
509
508
509
508
506
506
506
506
505
504
504
504
505
506
505
503
504
504
505
505
505
505
504
502
501
501
500
501
502
503
503
504
504
503
502
502
503
503
502
502
501
500
501
501
501
500
498
497
497
497
499
500
499
497
499
501
502
502
502
501
501
500
500
499
497
497
498
498
496
495
496
497
498
498
499
500
498
491
486
495
522
559
597
615
599
558
516
493
486
486
491
493
495
497
499
499
499
499
499
500
501
503
504
504
506
507
507
509
511
513
514
515
517
518
519
519
520
523
525
527
528
531
534
537
538
539
539
538
538
536
534
533
533
531
528
525
522
518
516
514
512
510
510
510
511
511
511
511
510
510
510
509
509
509
508
508
507
507
506
507
506
506
506
506
506
505
504
504
504
503
502
503
504
506
507
506
506
506
505
504
504
504
504
506
509
510
511
511
511
512
510
508
506
504
503
503
504
505
504
504
505
505
503
503
502
502
502
503
506
507
507
508
509
509
507
506
505
504
503
503
504
503
503
503
503
502
502
502
502
502
503
504
503
496
487
484
501
534
575
610
618
590
546
509
494
492
496
499
500
500
502
503
504
505
505
505
505
506
506
505
505
505
506
505
504
506
508
509
511
513
515
516
518
520
522
523
525
527
529
529
530
531
531
530
532
532
531
530
528
528
527
526
525
523
520
517
514
512
512
512
512
511
509
508
507
506
506
507
507
506
506
507
508
507
506
505
505
504
504
505
504
504
506
508
508
507
507
507
505
504
502
501
499
501
503
504
504
504
504
503
503
505
507
508
508
508
508
508
507
507
508
509
510
511
511
510
509
511
511
510
509
509
510
510
511
512
511
512
513
514
516
517
518
519
518
517
517
516
514
513
513
513
511
510
508
507
506
506
507
506
506
507
507
505
500
492
490
506
541
583
619
625
596
551
515
500
498
500
502
500
500
500
499
499
501
504
505
506
508
509
508
507
507
508
508
509
511
511
510
511
512
511
511
513
514
514
516
517
518
518
518
521
524
525
527
528
528
529
530
530
527
525
523
522
520
519
518
516
513
510
509
507
507
508
507
505
504
505
507
508
508
508
508
507
507
506
506
506
505
505
505
504
503
503
502
502
504
506
507
507
506
505
504
505
506
506
506
505
505
505
504
504
504
506
506
506
506
506
506
505
505
505
505
506
507
506
505
505
506
506
506
506
506
506
506
505
505
505
507
507
507
508
509
511
511
511
510
509
508
507
507
508
507
508
507
506
504
503
504
502
499
499
499
496
488
486
504
539
579
614
624
595
547
510
494
491
494
496
498
499
501
502
502
502
502
502
502
503
505
507
507
506
508
510
512
513
515
516
517
518
520
522
523
525
526
527
528
529
530
530
530
530
531
533
534
534
534
534
534
534
532
529
526
523
520
516
514
510
507
505
505
504
502
501
501
501
499
498
498
497
495
496
495
496
495
495
496
496
494
493
494
495
495
496
497
497
495
494
494
494
493
493
492
492
493
495
497
497
498
499
500
500
502
503
503
503
503
504
503
502
503
503
504
503
503
503
502
501
502
503
503
504
504
504
505
507
507
507
506
506
507
505
504
504
505
504
502
501
500
497
496
496
497
498
499
498
493
485
484
503
535
572
602
605
574
530
499
486
481
482
485
488
491
492
493
494
494
496
497
499
499
499
502
503
503
504
505
506
508
509
509
509
510
513
515
515
516
518
519
518
520
520
521
522
524
525
525
524
525
526
525
524
523
520
516
513
510
508
505
503
502
501
500
500
502
504
504
505
504
504
504
504
505
504
504
504
504
504
505
506
508
509
510
509
509
510
510
510
511
510
510
511
511
511
511
510
509
508
506
505
504
505
506
507
505
505
505
504
503
503
504
504
504
505
505
506
507
509
510
510
512
515
516
514
513
513
514
513
512
512
511
510
510
511
510
510
513
514
515
515
516
516
513
505
499
509
537
574
611
628
611
572
531
508
500
502
506
508
510
513
516
517
518
519
520
519
520
521
522
521
522
523
524
526
528
530
530
530
530
531
531
531
532
535
537
538
540
541
540
541
542
543
543
544
545
544
543
543
542
540
537
535
532
529
526
525
523
520
519
518
516
515
516
516
516
514
512
511
511
510
510
510
510
510
512
512
511
511
513
513
511
511
511
511
510
511
512
511
510
510
511
512
511
510
511
511
511
512
513
512
513
515
516
518
520
522
521
519
518
517
515
514
513
511
508
507
507
507
506
507
507
507
505
504
503
502
500
496
487
488
511
548
587
615
612
577
532
500
490
493
498
500
500
502
505
505
504
503
504
503
504
506
508
509
511
512
512
513
515
517
518
518
518
519
519
520
521
522
523
524
526
528
529
531
532
532
532
533
533
532
530
528
527
526
525
524
521
516
514
513
511
509
508
507
505
503
502
501
501
502
504
505
505
506
507
506
506
507
509
509
508
509
510
510
508
508
506
506
505
506
506
505
505
505
505
504
504
503
503
502
505
506
505
503
502
502
502
501
501
499
497
497
497
497
498
498
498
498
498
500
502
503
501
496
487
488
509
544
584
615
611
572
523
492
483
486
490
492
492
493
494
494
496
497
498
498
500
501
501
502
504
505
505
505
505
506
507
508
509
510
510
512
514
516
519
520
521
522
522
522
523
524
525
526
526
527
528
528
527
524
522
519
516
514
511
509
508
506
505
503
501
500
500
500
500
500
501
501
501
502
502
502
502
503
503
503
502
501
500
500
498
498
498
498
497
496
497
496
496
499
500
500
500
501
501
499
497
496
495
494
494
495
495
494
494
495
495
497
499
500
499
499
498
491
485
496
525
563
598
609
583
538
499
483
479
481
485
489
492
494
496
498
499
499
499
500
502
502
503
504
506
507
508
510
512
513
514
516
517
517
519
521
524
524
525
526
527
528
529
529
528
527
526
525
524
526
527
526
524
524
524
523
519
518
516
514
512
510
509
507
506
506
506
505
506
506
506
505
507
508
509
507
506
506
506
505
506
505
505
504
505
506
506
506
508
509
509
510
512
513
513
512
513
511
509
506
503
503
502
502
501
500
499
499
500
499
500
501
500
497
493
486
486
503
535
568
592
589
558
518
490
479
480
485
488
488
490
493
494
495
496
498
498
501
501
502
504
506
506
507
507
509
511
510
510
511
513
514
515
516
516
518
520
522
523
523
524
523
523
522
521
521
520
519
519
519
519
518
516
515
512
509
506
504
503
503
503
501
500
500
500
501
501
502
503
502
502
502
503
502
502
504
504
504
503
504
505
505
505
507
507
506
507
507
506
504
504
504
503
502
501
500
498
497
498
500
499
499
498
497
497
497
497
497
497
495
490
488
501
528
561
587
588
561
524
494
483
483
487
491
494
497
498
499
500
500
502
502
503
504
504
504
503
503
502
501
501
502
503
504
507
508
508
509
511
512
511
511
512
513
513
514
516
517
517
518
519
518
518
517
516
514
514
515
514
512
510
508
506
504
505
505
504
504
506
506
505
504
503
502
501
500
501
501
500
500
500
500
500
501
502
504
505
505
505
504
504
505
507
506
507
508
509
508
507
507
506
504
504
504
504
502
502
503
503
500
499
499
498
496
493
487
485
500
529
560
584
586
558
523
497
489
490
494
496
497
500
501
501
502
503
502
501
502
504
505
503
503
503
502
502
504
505
506
506
507
507
508
509
510
509
509
509
511
511
511
512
514
514
514
514
513
512
511
511
509
506
504
502
499
496
496
494
492
491
491
491
490
490
491
492
492
492
493
493
491
490
490
490
488
488
488
487
488
488
488
488
487
486
484
482
482
482
481
479
479
478
477
478
479
480
480
480
480
480
478
477
476
474
473
471
470
469
469
469
468
468
466
467
466
463
456
450
458
482
513
544
560
543
507
473
456
453
458
463
465
466
469
470
470
470
471
473
474
473
474
475
476
476
477
478
479
479
481
482
483
483
485
486
486
486
487
488
489
490
492
492
491
492
493
494
494
493
493
493
494
494
494
491
489
487
485
483
482
480
478
477
477
477
476
475
473
472
470
470
469
468
466
465
464
463
462
460
460
460
459
460
461
462
462
462
463
464
464
462
462
461
461
461
460
459
460
460
459
459
459
458
458
459
460
461
461
460
460
461
459
458
458
458
457
456
457
458
457
458
458
458
458
459
457
450
443
452
480
517
552
568
549
510
474
457
455
459
462
463
464
463
464
464
465
465
467
469
470
471
473
475
475
475
476
478
478
478
477
477
478
479
482
484
484
485
487
487
487
488
490
490
490
490
490
489
489
489
488
487
487
487
487
486
484
483
483
482
480
480
479
479
479
479
480
481
482
484
484
484
484
483
482
482
484
485
485
485
484
484
485
485
485
485
485
486
485
484
484
485
485
485
485
485
486
486
485
484
485
483
483
484
485
486
485
485
486
487
489
489
490
490
492
492
492
491
491
492
492
493
494
493
493
493
493
493
492
490
489
488
487
487
486
486
486
487
488
488
487
487
483
476
472
486
517
553
587
597
572
531
495
480
479
482
484
486
486
487
488
488
488
490
491
494
495
496
498
499
498
498
498
499
500
501
502
503
505
507
509
510
511
513
514
513
513
513
512
512
513
515
515
513
512
513
513
513
513
513
514
513
513
511
509
508
507
508
508
509
511
512
511
511
511
510
509
507
507
507
508
510
511
511
512
513
513
513
511
510
509
509
511
514
514
513
512
513
514
513
513
514
513
514
516
518
517
517
517
517
517
518
518
516
514
515
516
517
518
519
519
518
518
518
519
519
518
520
520
520
520
519
521
524
524
525
525
524
524
524
523
521
520
520
520
519
519
519
518
518
519
519
519
518
513
505
508
532
567
606
631
624
589
545
518
507
508
512
515
518
520
520
519
520
520
521
522
523
523
523
524
525
525
525
525
526
526
525
525
526
527
527
527
529
531
533
535
537
537
539
541
542
540
539
536
535
533
532
532
532
532
531
530
528
526
524
522
519
518
517
516
514
513
513
512
510
510
511
510
509
509
509
509
509
507
507
506
506
506
506
505
506
509
510
509
510
510
511
512
512
512
511
509
509
510
508
507
507
507
504
502
502
502
502
503
505
507
508
509
510
511
513
515
516
517
517
518
518
519
520
521
521
520
520
521
521
521
521
520
520
518
518
517
515
514
514
515
516
516
516
514
506
499
509
539
576
612
626
606
562
521
501
496
499
502
504
506
506
507
509
509
510
511
513
513
512
513
514
515
515
516
518
519
521
522
524
525
527
528
528
530
533
535
534
534
535
535
534
534
534
535
535
535
535
533
530
529
528
527
524
522
520
518
516
514
513
511
510
511
511
510
511
511
512
509
509
509
508
508
508
509
510
511
512
512
510
510
510
511
511
511
510
509
509
508
508
508
507
506
506
506
505
503
503
504
503
504
505
506
506
508
512
513
514
515
516
517
519
520
520
517
517
517
516
515
514
514
514
513
513
511
510
511
512
514
513
512
509
504
495
497
522
558
596
623
619
582
536
507
497
496
500
503
505
505
505
505
505
505
506
506
507
507
509
511
513
513
514
515
515
517
519
520
521
522
523
523
523
524
525
525
525
525
526
526
525
526
527
527
526
528
528
528
527
525
523
520
518
517
515
513
511
510
510
509
508
507
507
506
507
507
507
507
507
507
509
510
511
513
513
512
512
512
512
512
511
511
510
510
509
509
509
509
510
509
508
508
508
508
508
508
508
508
509
510
511
510
512
513
514
514
514
515
515
513
513
514
514
512
512
513
512
510
509
510
510
511
510
510
506
500
495
502
528
565
604
624
608
566
524
501
494
495
498
499
500
502
503
502
501
502
503
504
506
508
510
511
512
514
516
517
518
519
519
519
520
522
522
523
524
526
527
528
529
529
531
533
533
534
534
534
533
531
528
525
524
523
523
522
520
518
516
516
514
513
513
514
513
511
509
507
506
506
507
509
508
508
509
510
509
509
509
509
508
509
509
508
506
506
507
508
509
511
512
511
508
507
507
506
507
507
508
507
507
507
507
505
504
503
504
504
504
505
507
508
508
509
510
512
513
514
513
511
510
509
508
505
504
504
503
504
503
502
502
501
502
502
503
502
499
491
485
495
526
565
603
620
598
553
511
490
484
486
489
492
495
497
498
499
500
501
504
506
506
505
505
507
509
511
512
514
514
515
516
517
516
517
518
520
520
522
524
527
528
529
529
529
529
529
530
530
532
533
534
531
530
528
528
525
523
521
520
518
519
518
516
514
513
512
510
510
510
510
507
505
505
505
505
505
505
506
506
507
507
506
505
506
507
506
504
504
505
505
505
507
508
506
506
505
505
502
502
502
503
504
505
505
505
505
505
505
504
504
505
505
505
505
507
509
510
510
512
514
513
513
513
512
510
510
509
507
505
504
504
504
502
500
499
500
502
503
505
503
500
493
488
501
534
574
611
621
596
550
508
490
487
492
495
494
493
495
496
496
497
497
497
497
498
499
500
502
503
504
504
506
509
511
512
514
518
519
520
521
522
523
525
526
528
528
528
529
529
528
529
529
529
528
528
529
529
527
525
522
520
518
518
517
514
513
513
513
510
508
507
507
506
505
504
504
504
503
502
501
501
502
503
503
503
504
504
503
504
505
506
507
508
509
510
509
508
507
505
505
505
505
503
504
505
505
504
503
504
505
505
505
506
507
508
508
508
507
509
510
510
509
508
508
509
510
510
510
510
510
509
509
508
508
507
506
506
506
507
508
507
505
504
504
504
503
504
499
490
490
513
550
589
616
612
576
531
503
493
493
497
499
499
502
503
504
505
505
505
507
509
511
514
515
516
516
515
515
516
516
516
516
516
516
517
518
518
519
519
520
521
524
525
526
526
528
530
530
529
529
529
529
526
525
525
523
521
519
516
513
510
509
507
504
501
499
499
498
498
499
501
500
501
501
499
498
498
499
499
498
498
499
499
501
502
504
504
504
504
504
503
504
504
504
504
504
504
504
503
504
503
502
502
504
505
504
504
505
506
507
507
508
508
508
507
508
508
507
508
511
513
513
513
514
512
511
512
513
513
513
513
514
513
512
510
508
507
507
507
507
507
502
494
494
516
552
594
626
624
591
544
512
500
499
502
503
504
506
513
510
505
504
505
506
507
507
507
505
505
506
507
508
510
512
514
516
516
518
521
522
523
523
523
525
525
526
527
528
528
527
527
527
527
525
523
521
519
517
516
514
511
508
507
506
506
504
504
505
504
502
502
503
504
505
506
507
506
506
506
507
505
504
504
504
504
504
504
503
501
499
498
497
497
497
499
499
500
500
500
499
499
500
500
499
498
499
500
499
500
501
502
502
501
499
498
498
498
498
497
497
499
500
500
501
502
502
501
502
505
507
508
508
509
510
509
510
510
509
507
505
504
502
501
501
500
500
500
499
501
500
496
488
488
507
541
581
614
615
583
536
502
488
487
491
493
494
497
499
499
499
499
500
500
501
501
500
501
503
505
505
506
509
512
513
513
515
516
517
518
519
519
519
520
522
523
524
525
526
526
528
530
531
529
528
526
524
522
521
519
517
514
512
511
510
508
507
506
505
503
503
502
503
503
504
505
503
503
504
505
504
504
503
503
501
499
499
501
503
503
503
502
500
500
499
498
498
498
499
499
500
501
501
501
502
504
504
503
503
503
503
502
501
502
503
503
504
505
506
508
510
511
510
512
515
515
513
513
513
511
511
509
506
504
501
500
501
500
501
503
504
505
506
507
508
506
501
494
497
520
555
592
616
610
581
547
527
520
521
527
531
534
537
539
541
542
544
546
547
547
548
547
546
546
544
542
542
543
544
543
544
544
544
545
544
546
547
547
546
546
544
542
541
541
541
540
540
539
538
535
533
531
527
523
520
516
515
514
513
511
509
507
506
505
503
503
502
500
498
497
497
497
497
496
495
494
493
493
493
493
493
494
495
494
494
495
496
496
497
498
499
499
498
498
497
496
495
496
496
497
499
501
502
501
500
501
501
502
502
502
502
502
502
501
500
501
504
505
506
508
509
510
511
512
511
510
508
508
507
505
503
502
501
500
501
503
503
504
504
506
507
505
504
498
489
487
506
539
576
609
614
585
541
507
494
494
498
501
502
503
503
503
502
502
502
503
504
504
503
503
505
504
504
504
504
504
505
506
507
507
509
510
511
511
514
518
521
523
524
525
525
526
526
526
525
526
527
527
526
526
525
523
520
518
516
517
516
515
514
513
511
511
511
510
508
508
507
506
506
507
507
506
505
505
503
501
500
500
500
501
503
504
505
504
505
506
506
505
504
504
505
506
507
506
504
503
502
500
497
497
497
498
498
498
499
499
499
500
501
501
501
502
502
501
502
502
502
501
501
502
502
501
502
503
504
504
505
506
507
506
504
504
504
503
503
503
502
501
501
501
499
499
500
501
501
500
494
485
485
506
541
582
614
614
581
533
500
487
487
492
496
499
501
502
503
503
504
504
504
504
505
507
509
510
510
509
510
510
510
512
514
515
516
517
519
520
521
523
526
529
531
532
533
534
535
536
537
537
537
537
537
534
533
533
533
530
529
529
528
526
525
523
521
519
517
516
515
515
515
515
515
516
516
515
514
514
514
515
516
516
515
513
512
513
513
511
511
511
510
508
507
508
508
506
505
505
505
506
507
507
507
506
508
511
511
510
510
511
510
510
512
512
510
510
509
508
507
508
511
517
522
524
527
529
530
531
533
534
534
534
535
534
535
535
534
533
531
530
529
528
526
525
523
522
521
522
522
521
521
521
522
519
511
504
514
543
579
614
630
616
581
546
531
528
530
534
536
538
540
539
535
532
530
527
524
522
520
518
517
516
515
515
515
514
514
513
513
514
515
515
515
516
517
517
520
522
523
523
524
526
526
527
526
526
524
522
520
518
515
515
513
510
507
505
502
498
496
496
495
493
494
494
493
492
491
491
490
488
489
491
491
490
491
491
491
491
493
494
495
494
495
496
497
496
497
498
499
499
499
498
497
498
497
497
498
499
500
500
500
499
498
497
497
497
496
495
495
495
496
496
496
496
496
496
498
498
498
497
496
496
497
497
497
498
497
496
495
495
494
493
493
493
492
491
492
491
490
490
490
488
486
484
478
469
473
498
536
576
601
592
554
508
480
470
472
476
479
482
484
485
487
490
491
491
491
492
493
494
495
497
498
497
497
499
500
501
504
506
508
509
510
512
513
514
516
517
518
520
522
523
523
524
525
525
525
525
526
524
523
523
522
520
520
519
518
517
517
515
513
512
511
511
509
507
506
505
504
504
505
506
506
505
506
506
505
505
505
505
504
504
505
506
506
506
504
503
503
503
503
502
503
504
503
502
502
503
503
502
502
503
503
504
505
507
507
508
509
511
510
510
511
512
511
511
512
513
512
512
512
512
512
512
512
513
512
511
511
510
510
511
509
507
507
506
506
506
506
507
506
506
507
508
509
510
509
502
494
501
529
568
609
633
619
578
532
509
503
505
507
509
511
513
513
513
514
514
514
515
515
515
515
517
518
517
517
517
518
517
519
520
522
522
522
525
532
540
547
552
554
554
551
547
544
541
541
540
538
536
535
532
528
527
525
522
518
515
513
510
508
508
507
506
505
504
502
502
502
503
502
500
499
500
500
498
497
497
499
499
499
500
500
501
501
501
500
499
499
499
498
499
499
499
498
498
499
499
499
498
497
495
494
495
495
494
494
496
497
498
497
498
499
500
500
501
502
504
506
507
507
507
509
510
509
508
508
507
506
505
505
505
504
503
502
502
502
503
503
502
500
501
503
503
499
493
492
510
542
578
606
608
578
537
506
493
489
491
495
497
500
503
504
503
502
500
499
500
502
504
505
507
509
509
509
509
509
510
510
509
511
511
512
515
519
520
521
522
524
526
528
528
528
529
528
528
529
528
528
527
526
525
524
521
519
517
518
517
516
513
513
512
511
510
509
509
508
509
511
511
511
510
510
509
507
507
508
508
508
508
509
509
508
509
510
509
509
509
510
510
509
510
511
510
509
510
510
509
510
511
513
514
520
525
527
529
528
524
521
518
516
513
510
507
508
510
510
508
508
508
506
504
502
500
498
496
494
493
493
491
490
488
489
489
490
489
489
485
479
477
497
532
570
600
603
575
532
499
487
486
488
490
492
493
493
494
496
498
499
497
497
497
497
498
498
499
499
500
502
503
505
507
508
508
508
511
514
515
514
516
518
520
522
524
526
528
529
530
530
529
529
527
525
523
522
522
521
518
517
516
514
513
513
512
511
509
509
509
508
507
506
505
505
506
506
505
504
505
506
505
506
506
507
507
508
510
509
507
507
507
505
503
503
504
505
506
506
506
505
505
506
506
506
507
507
508
508
508
509
509
510
511
514
514
516
520
521
521
519
518
519
519
518
517
515
514
513
512
511
509
507
507
507
508
509
509
509
506
498
489
493
518
556
596
619
607
567
523
498
491
494
499
499
500
502
502
502
502
502
503
503
504
503
504
504
505
506
507
508
509
510
510
511
514
517
519
522
523
524
526
528
530
530
532
538
545
549
552
553
552
549
545
542
537
532
527
524
521
517
513
509
506
503
501
501
499
497
496
495
495
495
497
499
499
498
497
497
497
496
495
493
494
496
497
497
497
498
499
499
499
501
501
501
501
502
503
504
505
505
504
503
502
502
501
500
500
500
498
496
497
498
499
499
499
499
499
499
501
503
505
507
507
507
507
508
509
509
507
508
508
507
504
503
503
501
501
501
500
500
500
500
500
501
502
503
503
496
488
490
513
549
590
618
614
578
533
505
495
494
498
500
503
506
509
510
510
511
513
515
515
515
515
515
515
516
518
519
519
520
520
520
520
521
522
522
523
524
526
527
527
530
531
531
533
535
536
536
537
537
537
536
535
534
530
527
525
523
520
517
516
514
512
511
510
508
505
504
503
501
499
499
500
499
498
499
500
500
500
500
501
501
501
501
501
500
501
501
500
499
497
497
497
497
497
499
500
500
501
502
502
502
503
504
503
503
503
501
500
501
502
502
502
503
503
503
503
504
505
505
505
505
507
508
509
508
507
505
505
505
503
500
499
499
499
498
497
495
494
495
495
497
499
500
498
492
486
494
520
557
594
617
607
570
528
505
497
495
497
500
503
505
506
509
510
510
512
513
514
513
513
514
516
518
519
520
522
522
521
520
519
520
521
521
522
524
526
528
528
529
531
532
531
531
532
532
531
531
531
531
530
530
529
527
526
526
526
524
523
523
521
520
519
518
517
516
514
512
511
510
510
511
512
512
512
511
511
511
511
513
513
512
512
511
511
511
511
511
511
510
509
509
508
510
512
512
511
510
510
509
509
509
509
508
507
506
505
504
503
504
504
503
504
504
505
503
503
503
503
501
501
502
500
498
496
496
495
494
494
493
493
493
493
493
493
494
496
498
498
500
498
493
486
488
510
545
584
614
611
574
527
495
483
481
484
488
489
491
494
495
496
496
498
500
501
501
502
503
505
506
507
506
505
507
509
510
510
511
511
512
513
514
516
518
521
523
524
524
524
525
526
526
525
524
524
522
521
521
521
518
516
514
512
509
508
507
506
506
506
507
506
505
506
507
507
507
507
508
507
507
507
507
507
507
507
508
508
509
508
508
508
508
508
505
504
505
507
507
507
508
509
508
508
508
508
508
509
509
508
509
511
511
508
506
507
508
508
507
507
508
508
509
510
511
511
512
511
510
510
513
515
515
514
515
515
514
514
515
514
512
510
511
511
511
510
509
509
510
512
514
512
506
496
489
502
532
572
610
622
597
552
513
494
490
492
495
495
495
497
497
496
497
500
502
504
507
509
510
510
512
514
514
513
515
516
516
516
517
517
516
515
516
519
520
523
525
526
526
527
528
527
526
526
526
525
524
524
523
520
517
516
514
511
509
508
506
505
504
504
503
503
502
501
501
501
501
501
500
499
499
501
502
502
503
504
504
505
507
508
508
509
511
510
508
509
510
510
509
508
509
508
508
508
508
508
507
508
509
509
511
512
511
511
510
510
511
510
510
509
509
509
509
509
510
511
512
512
513
514
515
515
514
515
515
515
513
512
511
510
507
507
508
507
507
508
509
509
509
509
506
497
491
499
527
564
602
622
605
562
522
502
496
496
499
501
503
506
507
506
506
506
506
506
505
505
506
506
504
505
506
506
505
506
506
505
505
505
507
508
511
513
514
515
517
518
520
521
524
526
527
527
528
529
530
530
530
528
525
522
520
518
516
515
515
514
512
511
511
511
510
511
514
516
516
517
516
515
514
514
511
510
510
510
510
510
511
510
510
509
510
511
512
511
511
510
510
509
509
508
506
505
505
505
504
504
504
504
502
501
502
502
500
499
499
499
499
499
500
499
499
500
502
503
503
504
505
505
504
504
504
504
506
507
507
507
507
508
507
505
506
505
504
502
503
504
503
502
501
501
501
500
499
497
491
482
483
503
537
579
613
616
584
537
504
492
491
493
495
496
497
499
501
502
501
502
502
501
501
502
503
505
506
508
510
511
513
515
514
514
514
516
517
519
520
521
521
522
523
524
525
527
530
531
532
532
532
531
529
528
526
523
521
518
515
511
509
508
508
507
508
508
506
504
504
504
503
501
500
499
499
500
501
501
502
502
503
502
502
501
501
500
499
499
499
500
499
499
500
501
501
503
505
505
504
504
504
503
502
503
503
502
501
500
500
500
499
498
497
496
495
496
497
495
494
494
494
495
496
495
495
495
496
498
499
500
500
502
504
507
508
508
508
509
510
509
508
508
507
506
505
506
507
507
506
505
505
505
506
505
502
495
494
513
546
585
620
629
602
561
533
522
521
524
528
530
531
529
526
522
519
517
517
517
516
516
516
515
514
515
515
513
513
514
515
514
514
514
514
513
515
516
517
519
522
524
524
523
524
525
526
528
528
527
526
525
524
522
520
518
517
515
514
510
507
506
503
502
503
503
503
504
505
506
506
507
507
507
507
507
507
505
504
505
507
507
505
505
506
505
504
503
503
502
501
501
500
500
500
499
498
497
496
496
494
493
493
494
493
492
491
490
490
491
492
493
493
495
497
497
497
498
500
500
501
501
501
501
501
503
505
506
506
506
506
506
507
507
505
503
500
499
498
499
499
500
499
499
501
503
503
501
496
488
486
503
537
576
608
614
584
537
501
488
487
489
489
489
490
491
492
493
492
492
493
494
495
494
495
496
498
500
501
503
505
506
508
510
510
511
511
512
514
518
521
524
526
529
531
533
533
533
534
534
533
534
535
534
532
531
531
530
529
527
524
521
521
520
519
518
518
518
517
517
516
516
516
515
515
516
516
516
516
516
516
516
518
520
520
520
520
520
518
517
517
516
514
514
514
515
513
513
514
515
515
514
512
511
510
510
511
512
512
514
516
516
516
516
516
516
516
518
518
518
517
517
518
518
519
519
518
519
521
522
520
518
518
516
516
514
512
511
511
511
510
509
509
509
510
509
508
509
508
504
497
488
491
514
551
592
622
618
582
534
504
493
494
499
500
500
501
502
501
500
499
499
499
500
501
501
501
502
504
505
505
507
510
512
514
515
518
519
521
523
525
527
528
529
529
530
532
534
535
537
539
541
542
542
541
540
538
536
533
531
529
525
522
521
519
517
515
512
510
508
507
508
507
509
510
512
513
514
515
515
515
515
516
516
515
514
512
509
509
509
509
509
510
510
509
508
507
506
506
507
507
507
507
506
506
506
504
503
503
504
503
504
505
505
504
504
504
504
503
505
506
507
507
508
511
512
512
512
512
510
507
505
504
502
502
502
502
501
502
503
502
501
501
503
504
504
503
497
488
489
513
550
589
616
613
578
533
503
493
492
494
498
499
501
503
503
504
504
504
505
505
505
505
505
505
506
506
508
508
509
510
511
512
514
516
517
517
518
520
522
524
525
527
528
527
527
527
527
527
526
524
522
521
519
517
514
511
510
508
505
503
501
500
497
496
495
496
496
496
497
498
498
498
498
500
501
502
503
504
503
503
501
500
500
499
499
497
497
496
496
497
498
498
499
499
500
501
501
500
499
499
498
497
497
497
498
498
499
499
497
496
495
496
496
497
500
502
502
501
500
502
504
505
504
504
503
503
503
504
502
501
501
500
499
499
500
499
500
501
500
499
498
497
491
483
481
499
533
573
607
611
581
536
502
489
488
492
495
496
497
498
499
499
499
500
501
501
501
502
503
503
504
505
506
506
506
507
508
507
509
510
513
515
515
517
519
521
523
524
525
527
528
528
528
527
528
528
527
525
524
523
521
520
519
516
511
506
504
502
501
501
501
499
498
498
499
499
498
498
498
497
496
496
496
495
495
496
498
498
499
500
500
500
501
503
503
502
503
504
504
503
503
502
501
500
500
499
499
500
500
498
497
496
497
496
495
495
496
496
497
497
497
496
496
498
500
500
500
501
504
505
507
508
510
509
507
507
507
505
505
505
506
506
508
508
509
512
513
514
514
514
510
502
495
507
539
580
617
632
611
566
522
502
499
502
505
506
508
509
509
509
511
512
513
514
514
513
513
514
514
513
514
515
514
515
516
518
520
521
524
526
528
530
531
533
533
534
536
537
538
538
538
537
536
534
531
531
530
529
528
526
524
522
520
518
517
517
517
516
515
514
513
513
511
511
511
512
513
513
511
509
509
509
509
508
507
507
506
505
505
505
505
506
506
504
503
505
507
508
508
508
509
508
509
510
511
511
512
514
513
512
512
513
514
514
516
517
517
517
516
515
515
514
515
516
517
517
517
517
518
518
519
520
520
520
519
517
515
514
515
515
514
513
511
511
510
511
511
510
509
509
508
507
501
492
488
502
535
577
614
623
594
548
510
493
489
491
493
494
496
497
496
495
497
498
498
499
500
501
500
500
501
503
505
506
506
507
507
508
511
512
514
517
519
519
519
521
522
523
524
526
528
530
534
535
536
535
535
534
531
528
525
523
519
516
514
513
511
508
506
506
504
503
503
501
501
500
502
503
504
504
505
505
505
506
506
506
506
507
507
507
506
505
505
506
507
507
506
506
506
506
505
504
504
505
504
503
502
502
501
501
500
500
502
502
502
502
500
500
501
501
501
502
501
500
500
502
503
502
502
501
500
498
498
497
496
494
495
497
497
496
496
497
497
497
499
499
497
492
485
489
514
548
584
608
600
563
521
496
486
484
487
490
492
494
495
496
496
496
498
500
501
501
501
502
502
504
506
507
508
509
510
511
511
511
511
512
513
514
516
517
520
522
523
523
524
526
526
525
525
525
524
522
523
522
519
516
514
512
510
509
507
506
506
506
506
504
503
504
505
503
502
503
503
503
502
503
502
501
501
503
505
505
505
505
504
504
506
507
505
503
502
502
500
499
499
499
498
497
496
497
497
497
497
498
499
500
501
502
502
502
502
501
500
500
500
503
504
503
503
504
506
506
506
506
507
507
507
506
505
504
503
502
501
502
502
502
505
507
505
498
494
506
535
574
613
632
613
571
529
506
500
502
505
506
505
506
506
505
505
505
504
504
503
504
505
505
504
504
505
505
505
506
507
508
510
511
511
511
513
515
517
520
523
525
526
528
531
531
529
530
530
530
530
529
529
528
525
524
523
520
517
513
509
506
505
503
502
500
501
503
504
503
504
503
502
501
500
500
500
500
501
502
500
499
500
501
501
501
502
502
500
501
500
500
499
500
501
501
502
503
503
502
501
502
503
502
502
502
501
501
500
500
501
500
500
500
500
498
499
500
501
503
504
503
503
504
505
505
504
502
502
501
499
499
499
499
498
498
499
499
499
499
500
500
500
500
497
491
484
490
516
554
595
621
612
573
527
500
492
494
498
500
501
502
502
503
504
505
506
506
505
505
507
508
508
508
512
521
529
535
539
543
545
548
552
553
552
551
552
551
547
543
539
534
532
531
528
525
523
521
520
519
517
515
513
510
508
507
505
504
501
500
498
497
497
497
496
497
497
497
496
496
497
497
497
497
498
499
498
497
498
499
500
500
502
503
503
502
502
501
501
502
503
503
503
501
500
498
499
498
497
497
498
500
500
501
502
503
504
505
505
505
504
504
505
505
503
504
504
505
506
506
507
507
508
511
515
515
514
514
514
513
513
514
513
511
510
510
511
510
508
507
508
507
508
508
507
503
496
491
502
531
569
607
623
602
560
521
500
495
495
496
496
497
500
502
503
505
505
505
505
505
506
506
507
507
506
506
507
509
510
509
509
510
512
513
514
514
515
517
520
523
525
527
528
529
529
531
532
533
532
532
530
528
524
523
521
518
513
511
511
509
507
504
503
502
502
501
501
499
499
500
501
500
501
502
504
503
506
509
512
514
515
516
516
515
514
513
513
513
513
513
511
510
510
510
509
508
509
510
509
509
509
508
507
507
507
508
508
509
510
510
509
511
511
510
510
511
512
511
511
513
515
516
516
516
517
518
520
528
535
539
543
546
548
549
551
551
548
541
535
529
523
519
516
514
512
511
506
497
491
503
533
569
604
618
596
552
511
490
483
484
487
489
490
490
491
492
492
492
493
495
497
497
498
499
501
502
504
506
508
509
508
509
510
511
513
515
517
518
519
520
521
522
524
525
525
526
528
529
528
526
524
524
524
522
520
517
515
513
510
507
504
503
501
499
498
498
497
497
497
497
495
495
497
498
498
499
499
499
499
499
499
500
499
501
502
501
500
500
501
501
501
501
501
500
499
500
500
500
501
502
503
504
505
505
505
503
503
503
504
506
506
507
507
508
509
510
509
509
508
506
504
504
503
503
502
502
503
502
502
505
508
508
506
506
509
509
508
507
505
503
502
501
501
500
501
501
501
502
503
504
504
502
496
487
491
516
553
596
624
617
582
537
507
496
496
499
501
503
503
503
503
505
507
508
507
508
508
510
511
512
514
515
516
516
516
515
515
515
515
515
515
517
520
521
523
525
527
528
530
532
532
530
529
529
528
527
525
524
522
519
516
513
511
509
507
507
505
503
501
500
499
499
500
504
514
521
526
528
532
534
535
535
536
536
534
530
526
524
521
519
517
517
515
513
512
512
511
508
507
507
506
505
503
501
500
499
499
499
498
500
501
501
500
500
500
499
499
500
501
499
498
498
499
500
502
503
504
504
504
504
505
505
507
509
509
510
509
510
510
509
507
508
508
507
507
505
504
503
504
504
503
504
506
506
507
508
508
507
506
506
502
492
488
505
539
579
616
627
601
555
517
498
494
497
500
502
504
505
506
506
505
506
505
504
504
505
507
508
509
511
513
514
515
516
517
517
515
515
516
516
517
518
519
519
519
520
522
523
523
525
525
523
524
523
522
520
520
519
518
514
511
509
507
505
502
501
499
500
501
502
502
502
501
502
503
503
504
504
505
506
507
506
504
505
505
505
503
503
503
503
504
504
503
502
502
502
503
502
503
503
503
502
502
502
502
502
501
501
502
502
504
504
503
504
505
506
506
507
507
508
508
507
507
506
504
504
504
506
507
508
508
509
509
510
511
513
514
514
514
514
514
512
510
508
508
508
508
507
507
507
506
506
507
508
507
506
506
504
496
489
499
528
564
601
618
599
556
515
494
488
489
493
494
495
495
495
495
494
495
497
498
499
500
502
505
506
507
508
509
508
507
509
510
511
512
514
516
517
519
522
523
526
528
530
531
532
534
536
535
536
537
536
535
534
535
535
533
532
529
525
521
522
528
534
538
541
544
546
547
548
549
546
544
540
535
530
526
523
521
519
518
516
515
514
511
508
504
502
500
499
495
494
494
493
491
490
490
491
490
489
489
489
490
490
490
489
489
489
489
488
488
489
490
489
489
488
488
486
485
485
486
485
486
488
488
489
491
493
495
495
497
500
501
503
504
505
503
502
502
502
500
499
497
496
496
496
496
495
495
496
497
497
497
494
486
481
496
529
569
605
618
596
552
511
491
486
489
490
492
494
496
496
496
497
498
499
499
499
499
499
499
500
500
501
501
501
501
502
502
502
502
502
503
504
507
509
512
514
515
518
520
522
525
527
527
526
526
526
525
522
520
517
515
513
511
510
508
507
506
506
506
506
506
506
506
506
506
505
503
503
503
504
504
506
508
509
508
509
511
512
513
515
516
515
513
512
511
510
509
509
508
507
506
505
504
504
506
507
506
506
506
506
505
506
507
507
506
507
508
508
509
509
509
507
506
506
505
506
507
509
511
512
513
513
514
514
514
515
515
514
513
513
513
511
510
508
508
507
508
509
508
507
508
510
509
507
506
503
496
493
508
539
579
617
635
618
577
539
523
521
526
529
530
531
532
532
532
530
527
522
516
511
508
507
504
502
499
497
497
497
498
499
498
497
498
499
498
499
499
500
501
503
505
508
510
514
518
519
518
518
517
515
513
512
512
509
506
503
501
499
498
498
497
495
494
493
492
491
491
491
490
489
490
491
491
490
491
492
492
491
492
492
492
491
492
492
491
491
491
490
489
489
490
491
490
490
492
493
493
493
494
494
494
495
495
495
494
495
494
494
493
493
493
490
490
491
491
490
489
490
491
492
495
497
498
498
501
502
503
505
507
507
506
506
507
506
504
503
502
501
500
500
498
497
496
497
496
495
495
495
496
493
486
480
487
516
556
598
620
605
562
518
493
484
483
485
486
488
491
493
494
495
497
498
498
499
498
499
499
501
504
506
507
509
512
515
517
520
521
521
521
522
524
525
526
528
531
533
536
539
540
539
540
540
538
537
538
538
536
533
530
529
528
527
525
522
520
518
518
518
517
517
517
516
517
517
516
516
515
516
516
516
517
517
517
516
514
513
513
512
512
512
510
509
511
512
512
510
509
509
508
508
508
508
507
506
506
506
505
503
503
503
502
501
501
501
501
501
502
503
505
507
508
509
511
512
513
513
513
513
513
512
511
510
510
510
510
510
511
510
509
509
509
509
510
510
506
498
494
512
551
595
637
656
639
599
561
540
534
534
535
533
530
529
528
527
525
525
525
525
524
522
522
522
522
524
526
526
525
525
526
526
528
529
530
532
531
531
532
533
535
537
536
536
536
536
535
536
536
537
537
536
534
531
528
525
524
522
520
519
519
517
515
512
510
508
506
505
505
503
502
501
501
501
501
501
502
503
503
504
504
504
503
502
502
502
504
504
503
502
503
504
503
502
501
499
498
498
497
496
495
496
498
498
497
498
499
497
496
497
498
499
501
501
501
501
502
502
503
502
504
507
508
508
509
509
508
507
507
507
505
503
502
502
502
502
503
504
505
506
506
504
500
495
486
484
503
539
582
615
616
583
537
503
491
492
496
497
498
502
502
502
502
503
505
505
503
504
505
505
505
505
505
506
508
508
509
509
510
510
511
515
517
517
516
517
519
520
521
523
524
525
526
527
528
528
528
528
527
526
525
526
526
525
524
522
521
520
519
518
516
516
518
517
517
517
519
520
520
521
522
521
519
518
519
519
519
520
521
521
521
521
521
519
517
516
514
511
510
510
511
511
510
512
514
514
514
514
515
515
515
516
515
515
516
516
516
515
514
514
514
514
514
514
512
511
512
514
514
513
513
512
510
510
510
508
506
505
504
503
501
502
502
502
503
503
504
502
501
499
493
484
488
514
553
592
618
610
571
524
496
487
489
493
495
496
497
497
498
498
499
501
502
504
504
504
503
502
501
502
503
503
503
505
507
507
506
507
509
511
514
517
519
520
523
526
528
529
530
530
529
529
530
530
528
525
522
520
518
515
515
513
510
508
506
505
504
501
499
498
497
497
497
497
497
497
496
496
496
497
496
495
496
497
498
497
496
496
496
496
497
497
497
496
496
496
496
495
496
496
495
494
495
495
494
495
497
499
500
499
498
497
495
494
493
493
493
494
493
492
493
495
495
495
496
498
499
498
499
500
501
500
500
499
498
497
498
499
500
499
500
501
500
499
499
499
496
487
480
488
517
557
598
619
601
559
517
494
486
487
489
490
490
491
492
491
491
492
494
494
495
495
497
498
499
500
500
500
502
505
506
507
509
511
515
517
518
519
519
519
520
523
524
525
527
528
529
530
531
530
528
526
525
524
522
522
521
519
517
516
515
512
511
510
510
509
510
511
512
512
512
512
514
513
513
513
513
514
515
516
516
516
516
517
516
517
517
517
516
517
517
518
523
532
540
544
545
546
547
547
548
547
547
546
544
541
536
531
527
523
521
518
516
515
513
512
511
511
511
511
513
512
512
512
511
510
509
508
508
508
508
506
506
505
504
504
503
502
501
501
500
495
486
482
500
533
571
607
616
590
544
507
490
485
486
490
493
493
495
496
497
498
499
500
500
499
499
500
501
501
503
505
505
505
505
506
508
509
512
514
515
516
517
516
515
517
518
520
521
523
523
523
522
522
521
518
516
513
511
509
507
505
503
500
499
498
496
495
495
495
494
494
493
491
492
491
492
494
495
496
495
495
495
496
496
496
495
495
495
494
492
492
492
491
489
489
490
489
489
490
492
