506
508
507
506
504
503
502
501
501
501
503
504
506
508
510
510
510
509
503
502
510
511
506
508
514
510
505
507
511
507
502
505
509
503
500
505
509
504
503
509
509
503
503
509
508
502
504
513
510
505
507
514
511
508
513
518
513
511
517
518
510
507
513
513
505
505
512
511
505
507
512
507
506
519
536
545
553
561
552
521
490
484
489
492
498
507
507
501
503
511
511
505
507
514
511
509
514
520
516
513
518
522
517
516
522
526
520
520
526
525
518
520
528
526
522
526
533
529
525
529
534
528
525
530
533
524
521
525
524
515
513
519
517
510
511
518
516
510
513
518
513
510
514
519
514
510
516
519
512
510
517
518
513
513
519
517
510
512
519
516
511
513
520
515
511
514
519
513
509
516
518
511
510
516
516
509
508
513
511
505
508
514
511
508
514
521
516
514
520
523
516
511
518
520
513
511
516
516
510
513
521
518
512
514
520
515
507
507
514
518
524
541
555
552
537
520
494
472
471
484
493
494
498
505
504
500
504
511
508
505
509
515
511
509
516
520
513
511
518
521
516
517
524
523
517
519
528
527
523
527
533
529
525
529
534
529
525
530
533
525
521
525
524
515
513
517
515
507
507
513
510
504
507
512
506
502
507
512
507
504
510
515
508
506
514
516
510
510
518
517
509
510
516
512
507
510
517
512
508
515
521
515
512
518
520
514
512
519
520
512
512
520
519
514
515
523
522
516
520
526
521
517
522
528
521
517
522
524
516
514
521
521
514
514
520
517
510
518
534
541
548
559
560
537
507
490
490
490
498
513
521
516
516
525
526
521
522
530
528
523
526
533
529
524
528
535
530
526
533
539
533
532
539
541
535
535
543
545
540
541
550
547
542
544
550
544
538
540
544
537
530
533
532
522
517
523
522
514
514
521
518
510
511
519
516
509
512
518
513
508
512
518
511
508
514
517
510
507
514
515
509
508
516
514
508
510
517
514
508
511
518
512
506
510
515
509
505
510
513
505
505
514
515
508
507
513
512
506
507
512
506
500
503
509
502
496
500
503
496
493
499
501
494
492
498
497
490
492
507
515
522
536
547
532
503
479
471
470
477
491
498
492
489
497
501
494
495
503
504
497
498
506
506
502
504
510
506
501
505
511
506
503
509
513
509
510
519
522
516
517
527
528
522
524
533
531
524
525
530
524
516
517
521
514
508
512
514
507
504
510
510
501
499
506
504
497
497
503
500
495
499
506
502
497
502
507
501
498
504
507
501
501
507
508
501
501
509
508
502
504
511
509
504
506
512
507
503
509
514
507
504
510
512
504
502
507
507
500
500
507
505
500
502
510
507
504
508
515
510
506
511
516
509
506
513
514
507
506
514
515
508
509
517
514
505
510
527
535
543
559
570
556
530
506
491
485
491
507
516
511
513
521
522
517
518
527
526
521
523
529
525
519
523
528
524
522
528
533
527
525
532
535
528
528
536
537
532
534
542
541
535
539
547
542
538
540
543
533
526
529
530
521
517
521
519
511
509
516
515
507
508
515
511
504
508
515
510
504
509
514
508
505
511
514
508
508
514
513
505
504
513
513
507
509
515
512
507
511
517
512
509
514
521
516
512
518
520
514
512
519
520
513
512
518
515
507
508
516
513
507
511
518
514
509
514
519
514
510
517
521
515
514
522
522
515
515
521
519
513
515
523
519
512
516
521
518
516
522
527
521
518
523
522
517
523
540
552
557
563
561
537
501
485
492
495
497
507
516
512
509
515
519
512
509
515
516
507
506
514
512
506
507
515
513
508
511
519
515
510
515
522
518
516
522
527
522
522
529
532
526
527
535
535
528
528
533
528
522
521
525
517
510
511
513
505
500
505
507
501
499
506
507
501
502
510
509
502
503
510
505
500
503
507
500
495
500
505
500
499
506
508
500
499
506
506
499
498
505
504
499
501
509
506
503
507
511
505
500
504
508
502
501
507
510
503
500
505
506
499
499
505
502
497
500
508
506
503
509
515
508
503
509
514
507
504
509
511
505
503
509
508
501
503
509
505
496
494
501
504
510
527
543
542
529
513
489
466
462
475
487
487
490
499
501
495
498
506
504
499
503
509
504
499
504
510
505
502
509
514
508
507
516
517
512
513
522
523
518
522
531
529
525
529
536
531
527
531
535
528
523
526
527
517
512
516
516
510
509
516
514
508
508
514
511
505
507
512
507
502
507
513
507
502
508
510
503
501
507
508
501
500
508
506
499
500
505
501
495
499
505
500
496
500
503
497
495
501
504
498
498
506
505
499
499
506
505
499
501
508
504
500
505
513
508
503
506
510
503
500
507
508
499
498
505
505
499
500
506
503
498
499
504
502
505
520
539
548
552
554
539
505
481
485
495
499
506
517
519
514
517
525
526
521
524
531
527
522
526
532
528
525
530
535
529
527
534
536
530
530
538
539
534
537
544
542
537
540
546
542
539
543
547
541
537
540
541
531
527
531
529
519
517
522
520
513
514
520
516
509
511
517
512
506
510
514
507
503
508
511
504
502
509
510
504
504
510
507
500
500
506
500
494
497
504
499
495
500
505
501
498
503
506
500
500
508
509
502
503
510
509
503
505
511
508
503
506
513
509
505
508
512
505
501
506
506
497
495
501
501
494
494
499
498
491
493
498
492
489
501
518
528
538
549
542
511
482
475
479
482
490
501
501
495
497
505
504
500
504
513
510
506
511
518
514
510
516
520
514
512
519
521
515
514
522
522
516
517
525
523
518
522
530
526
523
528
533
527
523
528
530
522
518
524
523
514
510
514
512
504
505
511
506
498
500
506
502
497
502
507
502
498
504
507
501
499
506
508
503
504
513
513
508
509
516
512
507
511
517
512
509
516
521
514
511
517
520
513
511
517
515
508
509
515
512
504
505
512
509
503
504
510
506
503
507
510
503
500
506
509
502
501
509
510
503
504
512
509
502
504
509
504
500
512
530
538
546
557
552
524
493
481
483
486
494
507
510
505
505
514
513
508
511
518
515
510
514
521
517
513
518
521
515
514
523
527
521
520
528
528
523
524
530
528
522
525
531
526
522
526
532
526
523
527
528
519
516
521
520
511
509
515
514
507
508
516
513
507
508
512
507
503
506
509
503
501
507
510
503
501
508
509
503
503
510
508
503
505
512
509
504
507
514
509
505
509
515
509
507
514
517
510
509
515
516
508
505
510
506
499
501
508
502
496
499
505
499
495
500
505
499
497
505
510
505
505
511
511
505
505
511
508
502
504
510
507
502
507
514
508
504
509
511
504
507
524
537
544
554
564
550
518
493
491
493
497
506
516
513
510
516
522
518
514
520
525
519
517
523
527
522
523
531
531
526
528
536
534
530
534
542
540
538
543
550
546
544
551
556
550
548
555
557
551
550
554
551
542
539
543
537
528
527
530
523
518
521
525
517
512
518
522
517
515
523
524
518
519
526
523
516
516
523
519
513
515
521
515
510
514
517
509
506
513
515
508
506
512
512
504
504
511
511
505
506
511
508
503
507
513
507
502
506
511
504
502
508
511
505
503
510
511
506
508
515
513
507
509
516
512
507
510
514
509
506
512
516
511
508
514
514
507
510
527
538
543
553
562
548
520
497
491
488
491
504
515
512
510
515
519
513
511
518
520
515
514
521
522
516
517
524
522
516
521
528
524
519
525
533
528
525
530
534
529
529
536
539
533
532
538
537
530
530
535
530
521
521
524
517
511
515
519
513
508
511
513
507
505
513
513
505
504
511
509
503
506
515
512
505
508
514
509
504
509
513
506
502
507
509
503
501
507
507
500
499
506
504
498
499
506
503
498
501
507
503
499
504
509
503
500
507
511
504
502
508
509
503
503
509
506
498
500
506
503
498
501
506
500
496
499
500
495
500
517
532
539
544
542
520
485
466
471
477
480
488
498
494
489
495
501
495
491
495
500
494
491
497
498
493
492
500
501
495
496
504
503
499
503
511
508
505
510
517
513
511
519
524
518
516
522
523
514
512
518
515
505
504
509
504
497
499
504
498
492
494
499
495
491
497
500
494
492
500
504
498
498
505
504
498
500
506
503
498
501
507
501
496
499
505
499
495
500
504
498
498
505
506
499
498
505
503
497
499
508
506
501
504
510
506
502
506
512
507
505
510
513
506
504
512
514
506
507
515
515
510
512
519
516
512
516
521
514
512
525
541
548
559
573
568
541
511
497
496
499
508
521
521
515
518
526
523
518
522
529
524
521
527
531
525
524
531
533
528
528
536
535
528
529
536
533
528
531
537
532
528
533
540
536
533
539
542
535
532
539
539
531
528
533
530
521
520
525
522
517
519
526
521
516
519
524
519
516
522
525
518
515
523
526
518
518
526
526
519
520
526
524
519
521
528
524
520
525
529
524
520
526
529
523
521
527
528
521
520
527
526
520
521
527
524
518
519
524
519
514
518
523
518
513
518
521
516
515
520
520
514
515
522
521
514
513
520
517
511
513
519
514
510
515
519
510
509
524
538
546
558
570
563
535
507
497
496
500
509
521
520
516
520
526
521
516
519
524
518
516
521
524
518
516
523
524
519
520
527
526
522
524
530
528
525
529
535
531
528
534
539
534
533
539
541
534
531
536
536
527
526
530
525
516
516
520
514
509
512
516
510
506
510
512
505
503
510
512
506
505
511
510
502
501
508
505
498
499
505
501
496
500
505
499
495
501
505
499
496
503
503
496
496
503
503
496
498
505
501
495
496
501
497
493
497
503
497
494
500
504
497
495
502
504
498
497
503
502
497
499
507
504
498
500
507
503
497
500
507
502
499
505
507
501
499
506
507
499
497
506
514
520
534
553
555
541
522
498
475
470
483
497
497
497
504
508
504
504
512
511
504
504
510
508
501
503
510
508
503
505
513
509
508
514
519
514
513
520
523
517
516
524
524
517
517
524
523
518
520
527
521
515
515
518
510
504
506
509
503
500
506
510
505
505
515
518
512
515
526
531
532
541
556
559
559
567
577
576
576
584
589
583
582
586
582
568
559
557
549
536
533
534
527
517
515
519
513
505
506
508
500
494
498
502
495
491
496
496
489
487
493
491
483
483
490
486
478
479
483
477
472
476
479
470
465
470
473
467
465
473
476
471
471
478
480
482
495
515
525
527
524
513
482
457
455
464
464
469
480
485
481
482
490
492
484
483
489
488
482
482
489
486
482
486
494
490
487
493
499
495
494
503
507
502
502
510
513
509
510
518
517
511
513
521
517
510
511
516
508
502
504
507
500
496
501
502
495
495
503
504
497
498
506
504
498
499
505
502
498
502
508
503
499
503
508
502
498
505
507
501
501
508
507
501
501
507
505
501
504
509
505
500
504
508
502
499
503
508
503
502
509
513
508
509
515
514
508
510
518
514
507
509
514
510
505
508
513
506
502
506
508
500
501
517
530
537
548
558
546
517
490
482
481
485
498
510
509
507
511
518
513
510
517
520
515
514
521
522
516
517
526
527
523
525
531
529
526
530
536
533
531
536
544
540
538
546
550
544
542
548
549
542
540
544
541
533
531
535
530
523
524
529
524
520
523
526
519
517
521
522
516
514
520
520
514
514
521
519
513
515
522
518
514
517
523
519
516
521
525
519
517
522
524
518
517
523
523
515
514
520
519
512
514
521
518
516
522
529
524
524
531
536
530
528
533
535
529
529
535
533
527
527
533
530
525
529
535
530
523
522
527
528
535
553
569
567
555
538
510
484
483
499
509
510
514
522
520
516
519
525
521
517
521
525
521
517
523
526
521
519
526
528
522
521
529
528
523
525
532
530
525
529
536
533
529
532
537
533
531
537
539
531
527
531
531
523
521
526
523
516
516
522
518
512
515
520
516
512
516
521
515
511
517
521
517
518
525
527
520
519
524
522
515
517
522
518
513
515
520
515
510
514
518
512
510
515
518
512
511
517
518
511
511
516
514
508
509
515
511
506
510
516
513
510
513
515
508
505
510
513
505
503
510
512
507
508
514
511
505
507
512
506
500
507
523
529
539
554
557
535
506
487
480
481
491
505
507
502
504
512
510
505
508
515
512
508
514
519
516
513
520
524
520
519
527
529
523
523
530
530
524
527
534
532
528
531
538
535
532
536
542
537
534
538
539
531
527
531
530
522
520
525
522
513
514
519
515
509
512
518
514
510
515
520
514
512
519
523
517
515
520
521
515
516
523
521
515
516
522
519
514
517
523
518
514
518
521
514
510
513
514
508
507
514
514
507
507
516
516
509
510
519
517
513
513
516
509
505
510
514
506
501
507
509
502
501
508
509
502
502
508
504
498
506
523
532
539
548
547
523
491
476
475
475
482
496
502
498
500
509
511
506
506
514
513
509
513
521
518
514
519
525
521
519
526
530
525
524
531
534
529
528
536
538
533
534
541
540
534
536
541
536
531
533
536
529
523
525
526
518
514
519
519
511
510
516
514
507
507
514
512
506
509
516
512
507
512
519
513
509
514
516
509
507
513
513
507
507
515
514
508
508
513
510
504
507
514
509
505
508
512
505
500
504
507
502
500
507
509
503
502
508
507
501
502
508
505
499
502
508
504
501
506
510
504
501
506
507
504
511
529
543
549
551
547
523
492
481
490
495
499
509
517
513
509
516
521
516
514
522
526
521
521
528
529
524
526
534
532
526
529
537
536
532
536
542
538
535
539
544
540
539
547
549
543
541
547
545
537
536
540
535
527
527
531
525
519
522
526
520
516
520
522
515
511
516
517
510
509
516
515
509
510
517
515
509
511
518
514
509
511
516
511
507
513
517
511
509
518
518
512
511
519
518
512
514
521
518
512
514
521
520
516
520
522
514
510
517
520
513
509
515
515
508
507
512
510
504
506
512
509
502
506
519
525
534
549
560
547
523
500
484
478
486
501
506
501
502
511
511
506
508
516
514
510
513
520
516
514
518
522
517
515
522
525
520
520
528
530
525
526
534
534
529
531
539
536
530
532
537
532
528
531
533
523
518
521
521
513
510
515
513
505
505
510
507
501
501
507
503
498
500
504
498
495
499
501
494
491
497
499
492
489
494
494
486
486
492
490
484
486
492
487
484
488
494
489
486
491
496
491
489
497
499
493
493
501
502
496
498
506
505
500
502
508
504
501
506
511
507
503
508
512
507
506
513
515
509
508
513
510
506
514
531
541
547
554
549
521
487
476
484
488
493
503
507
502
501
509
510
505
506
514
514
507
508
515
514
510
512
518
514
511
517
522
518
517
523
526
521
521
528
530
527
529
538
539
534
535
542
538
532
534
538
530
525
528
531
524
521
524
524
518
516
523
523
515
515
521
518
511
511
517
512
508
512
519
514
510
514
517
511
509
514
515
508
508
514
513
507
508
514
512
505
507
513
509
505
509
514
509
504
509
513
505
501
507
510
504
503
510
508
502
504
511
507
499
500
506
502
498
500
505
499
496
502
506
501
498
504
505
498
496
503
508
511
524
542
548
539
524
503
475
464
473
487
490
492
500
505
500
499
506
508
504
505
512
512
507
510
517
516
513
516
523
520
517
522
528
525
523
530
532
527
526
534
536
529
529
537
537
532
532
536
531
522
520
522
514
506
508
511
502
496
499
499
491
490
495
495
489
488
494
493
488
491
498
495
491
494
499
494
491
496
501
496
493
499
502
496
495
502
503
496
496
504
504
498
500
506
501
497
500
506
502
499
504
509
503
499
504
506
500
500
507
507
500
501
508
506
498
500
506
502
497
499
503
498
499
514
530
539
545
549
535
504
479
477
480
483
493
505
506
503
507
515
511
507
510
516
511
507
512
518
514
513
521
524
519
518
526
526
521
523
531
530
525
527
534
532
528
531
535
530
526
531
533
525
521
525
523
514
511
517
514
507
507
513
509
503
505
510
506
502
506
512
507
505
510
514
508
507
514
514
508
508
515
515
509
511
518
514
508
512
519
515
511
515
519
513
510
516
518
511
508
516
518
512
512
518
519
515
517
525
520
515
520
528
522
517
521
526
519
516
522
525
519
518
523
522
513
514
528
537
544
559
572
563
537
511
495
489
494
508
518
515
513
520
523
517
515
521
521
516
518
525
523
517
519
527
524
518
520
525
522
519
524
530
524
523
530
532
526
526
533
535
532
535
542
540
533
533
536
530
524
524
527
520
514
517
519
512
510
518
520
514
513
520
520
514
515
523
521
515
518
524
519
514
516
520
514
509
515
518
512
509
516
518
512
511
519
518
513
515
522
518
511
513
520
515
510
513
516
510
506
511
515
508
505
512
511
502
501
509
508
500
501
507
504
500
502
507
503
499
502
507
502
499
505
508
502
498
501
502
502
513
533
542
541
533
516
485
465
471
487
491
492
498
504
500
499
505
509
506
506
515
515
509
509
517
518
513
515
522
519
515
520
526
522
520
526
529
524
521
528
531
526
526
533
533
528
527
534
531
523
522
526
520
513
515
517
510
504
506
507
499
495
500
503
496
494
501
502
496
497
503
501
496
498
504
502
497
499
505
501
498
502
505
499
497
503
505
496
493
499
497
491
491
497
495
489
490
497
492
487
491
495
490
488
495
498
494
493
499
502
497
499
508
508
505
509
518
517
512
515
522
519
514
516
520
514
511
516
518
511
509
515
515
506
504
511
517
522
535
553
557
545
528
505
482
477
489
501
501
500
506
509
505
505
513
516
510
511
518
516
510
511
518
515
510
514
520
516
513
518
522
517
514
520
522
516
515
524
525
519
520
527
525
520
522
527
521
514
514
517
509
502
504
508
501
498
502
502
495
494
502
502
496
496
503
501
495
495
501
496
492
494
498
494
491
496
500
494
492
499
500
493
493
500
500
494
495
503
502
498
501
506
502
497
500
506
501
498
502
506
500
500
507
508
501
501
510
511
504
502
507
505
501
502
507
503
498
501
506
500
496
499
501
495
492
496
499
500
510
528
538
537
528
513
481
458
458
470
475
479
487
493
488
486
492
495
490
490
498
500
493
494
501
500
496
497
504
501
497
500
506
502
498
503
510
507
506
513
518
512
511
517
517
511
511
518
514
506
504
507
500
491
492
495
488
481
483
486
479
477
483
487
480
479
486
486
479
481
489
488
481
483
490
487
482
486
490
485
479
484
489
484
483
488
491
486
485
492
493
487
489
497
496
491
493
499
496
493
498
503
499
496
501
505
498
495
502
506
500
499
505
505
498
500
508
507
501
503
509
505
498
501
510
515
523
542
557
554
539
521
496
477
479
494
503
502
504
511
509
504
507
515
511
507
511
517
512
510
516
521
516
514
520
523
518
518
526
526
522
524
531
530
526
530
537
535
531
536
541
536
532
536
538
531
528
531
530
520
517
520
516
508
508
514
511
506
508
514
510
506
510
516
510
508
514
517
512
510
516
516
510
510
517
515
508
509
515
512
508
511
516
512
509
513
517
510
507
513
516
509
507
513
513
506
506
513
512
507
509
516
513
508
513
519
513
507
510
514
508
504
509
510
503
502
509
509
502
501
506
504
497
496
502
502
508
523
544
549
544
533
511
481
471
484
496
496
497
505
507
503
503
511
510
505
506
513
509
505
509
515
511
508
516
521
517
515
520
523
517
517
526
528
523
525
532
531
526
529
536
532
528
532
537
530
524
526
527
518
514
519
520
512
509
514
513
506
508
514
513
508
510
515
510
506
511
516
510
507
512
516
512
510
516
516
509
509
517
517
509
510
517
514
508
510
515
509
505
508
512
506
502
506
509
503
502
508
507
499
497
503
503
498
500
506
503
498
501
508
504
500
505
512
506
503
509
511
504
503
510
511
503
502
508
506
500
502
508
505
500
503
506
501
503
517
534
544
553
561
548
516
490
489
496
499
505
514
514
509
512
518
515
510
515
521
517
514
520
524
519
516
523
524
519
518
524
524
517
519
526
524
520
523
530
528
525
529
535
532
528
532
536
529
525
529
529
520
519
524
523
515
513
518
515
509
510
516
511
506
510
515
509
506
510
515
510
509
515
516
509
507
513
512
506
506
513
510
505
509
516
513
508
511
515
509
505
510
510
502
500
506
507
499
498
503
502
495
495
501
496
490
493
499
493
489
492
496
491
487
492
495
490
490
498
500
495
495
500
497
491
492
498
496
491
494
499
495
490
495
501
496
493
499
501
493
491
504
516
524
536
548
541
517
494
481
474
473
486
499
498
495
501
507
503
500
506
510
504
503
510
512
506
507
514
512
507
508
514
511
506
510
517
514
511
517
523
518
518
525
529
523
523
529
529
521
520
525
522
513
511
514
508
501
502
505
500
496
500
504
498
495
501
503
497
496
503
503
496
496
503
501
495
497
502
497
492
496
501
496
493
498
502
498
496
503
505
499
498
505
504
498
498
505
503
498
501
507
503
500
505
511
506
502
509
513
505
504
511
513
505
503
509
508
502
504
509
507
502
504
511
507
503
508
515
512
508
511
518
519
527
545
558
555
542
524
496
475
479
495
500
499
503
511
506
503
508
514
509
507
513
516
511
510
517
517
511
511
518
518
512
514
521
519
515
518
525
522
519
523
528
522
520
526
529
524
523
529
529
521
518
522
518
510
510
516
511
506
507
511
505
500
504
508
502
500
506
508
503
501
508
508
501
501
507
505
499
500
507
504
499
503
508
504
501
507
512
506
504
510
513
507
506
513
513
507
508
515
513
509
512
519
515
511
515
521
517
514
520
524
518
518
526
528
520
518
525
525
518
518
524
521
516
519
525
521
517
520
525
520
515
517
522
525
534
552
567
567
559
544
515
489
490
506
513
513
517
524
521
518
524
529
525
522
527
529
523
521
528
529
523
523
529
529
523
525
530
528
525
528
535
531
528
533
538
534
533
540
543
537
536
541
541
533
530
534
531
521
519
522
517
511
513
518
514
509
513
518
512
509
513
514
507
506
511
511
503
503
509
508
502
503
509
505
499
501
506
500
496
500
505
500
496
500
502
495
493
498
499
493
493
500
497
491
491
496
493
489
492
498
493
489
493
498
493
490
496
499
493
492
498
498
491
492
499
498
494
496
502
500
497
501
505
499
495
501
505
499
496
500
501
495
494
501
501
495
496
502
497
490
498
514
522
531
544
550
529
500
480
474
474
481
494
499
494
494
502
502
497
498
505
504
498
499
504
499
495
499
505
501
499
505
509
504
502
510
513
507
507
513
513
507
509
517
516
512
516
521
517
512
514
517
511
508
511
512
504
501
507
507
499
498
504
503
497
499
505
501
496
498
503
498
494
499
504
499
496
501
504
498
495
501
502
495
495
503
503
498
499
506
501
495
497
502
497
493
498
501
494
491
496
499
494
492
499
500
494
495
502
501
495
497
504
503
498
501
506
502
499
504
508
502
499
506
508
503
503
510
511
507
509
516
513
509
510
515
510
503
505
509
503
498
502
505
500
498
504
504
496
500
516
528
535
545
551
534
504
482
479
479
482
494
504
500
497
502
507
502
502
508
509
503
503
510
510
504
507
515
514
509
514
521
519
515
519
525
521
518
525
529
525
526
533
534
529
530
537
535
528
528
532
528
521
520
524
517
510
512
515
507
502
507
509
502
499
505
505
498
498
505
504
498
500
508
505
500
502
508
502
498
503
508
502
499
505
507
500
498
504
504
497
497
505
505
498
500
506
503
498
501
505
501
497
502
507
501
499
506
508
501
499
506
507
501
501
507
506
500
502
509
506
503
507
514
509
505
508
512
507
505
509
511
504
503
510
510
505
506
513
510
503
504
512
516
523
540
557
557
545
529
506
483
479
492
503
503
506
515
517
512
513
520
519
514
516
522
518
514
518
522
517
514
520
524
518
517
523
525
519
520
528
527
521
522
530
528
523
526
533
529
525
528
530
522
517
521
522
512
508
513
513
504
502
508
506
498
498
503
501
495
497
504
500
496
499
504
498
496
502
506
500
499
507
508
500
500
507
506
500
502
509
507
501
504
510
506
501
505
509
503
501
507
510
503
502
508
509
502
502
508
507
501
503
509
506
501
505
510
506
505
511
516
509
505
512
515
508
507
512
511
505
506
514
512
506
509
515
512
505
507
515
519
526
545
560
558
544
526
501
478
480
496
505
504
506
513
514
509
512
520
518
514
519
524
520
517
522
526
521
520
526
530
526
525
532
532
526
528
535
535
531
534
542
539
534
539
544
538
533
536
537
528
524
529
528
518
515
519
517
509
510
516
513
507
510
516
511
507
510
516
511
508
513
517
511
510
517
518
512
512
517
516
509
510
516
514
508
510
516
511
507
511
516
510
507
512
514
508
506
512
512
506
505
512
511
504
504
510
507
502
505
509
504
499
502
507
502
499
503
505
500
500
507
509
503
504
511
509
503
505
511
508
503
506
511
506
502
507
512
507
503
508
510
503
498
505
513
518
532
553
561
551
533
511
487
480
491
505
505
503
508
513
508
507
512
514
507
506
512
513
507
509
516
515
511
513
519
516
513
518
524
518
515
520
525
520
519
526
529
523
523
531
532
525
526
531
528
521
522
526
519
511
511
514
507
502
506
508
502
499
505
507
501
501
507
505
498
498
505
504
498
500
506
502
497
501
506
500
497
502
505
499
496
502
504
498
496
502
502
496
497
505
502
497
499
504
498
494
499
503
496
493
498
501
494
492
498
499
494
493
499
498
493
494
501
500
495
499
506
502
499
505
510
504
502
508
513
507
505
508
508
502
503
511
510
504
504
510
505
500
502
507
501
495
498
502
504
512
530
545
547
541
528
502
475
472
485
493
493
497
504
501
499
502
508
503
500
505
510
505
503
509
511
505
505
512
514
508
510
517
516
511
513
518
513
509
514
522
519
516
521
526
520
518
523
524
516
513
518
515
506
504
509
505
498
499
503
500
496
498
503
498
494
499
502
496
494
499
501
495
495
501
499
493
495
501
499
494
498
504
500
496
500
504
500
497
502
505
499
496
502
504
498
498
505
504
498
498
505
503
498
501
508
504
500
504
508
502
498
502
506
500
498
505
506
500
499
505
505
501
503
508
503
497
500
506
501
497
500
506
500
497
502
505
498
496
502
501
494
499
518
527
533
543
546
528
497
477
476
475
480
493
503
500
499
506
509
503
502
509
511
506
507
514
513
509
512
519
517
514
518
525
522
519
524
528
523
522
529
533
528
527
534
535
530
530
536
533
527
528
532
527
520
521
524
516
511
513
514
506
502
506
506
498
498
504
504
498
498
506
505
500
501
507
504
499
502
508
505
502
506
510
505
503
509
511
506
505
510
508
503
504
510
508
503
505
512
509
505
508
512
507
504
509
512
507
505
512
514
509
507
512
511
506
507
513
508
502
504
509
505
500
505
510
506
503
507
509
505
511
528
542
549
556
555
534
500
480
484
490
496
507
515
511
508
513
519
515
513
519
523
518
516
522
524
518
519
527
528
523
526
535
534
530
533
540
536
533
538
542
537
535
541
544
538
536
541
540
532
530
534
528
518
515
518
513
507
509
511
504
499
504
509
502
498
503
505
500
499
505
504
499
500
507
506
501
502
506
502
499
502
507
502
498
504
508
502
500
506
507
500
499
505
505
499
501
508
506
500
503
510
506
501
504
509
503
500
505
509
505
504
511
513
508
507
514
512
504
504
511
509
503
504
509
504
499
505
510
505
502
506
509
502
497
505
514
519
532
551
556
540
518
495
475
471
483
497
498
496
501
507
503
500
505
509
504
504
512
514
507
506
513
513
506
507
515
512
508
510
516
514
512
517
523
519
518
524
529
524
524
531
532
526
525
530
528
519
520
525
519
512
512
515
508
503
506
508
501
498
505
511
509
511
520
523
518
520
530
530
526
528
534
531
526
530
535
531
528
533
537
531
528
532
534
528
527
534
533
526
526
532
529
524
524
530
526
521
524
528
524
520
524
528
522
520
526
527
520
518
524
525
519
520
527
526
521
524
530
525
519
520
526
523
519
523
525
518
516
522
524
516
515
520
519
512
510
515
517
522
536
557
563
559
547
525
494
481
489
502
502
503
510
512
506
506
513
511
505
506
513
510
505
508
515
511
507
510
515
509
506
512
516
511
511
517
519
513
515
523
523
518
521
529
527
522
525
531
526
520
521
524
515
509
513
514
506
503
507
507
499
498
504
503
496
498
505
503
498
501
506
501
496
499
505
500
498
505
506
500
497
503
503
497
497
504
503
496
497
503
500
494
496
501
495
490
494
498
493
490
496
499
492
491
497
498
491
491
497
495
489
490
497
493
487
490
496
493
491
496
501
496
495
501
502
494
493
499
498
490
490
496
493
487
490
498
496
491
495
500
491
487
498
512
517
526
540
542
521
494
476
467
464
471
484
487
485
489
497
494
490
496
502
498
496
503
508
503
501
509
511
506
506
514
514
507
510
519
518
515
519
525
521
517
522
528
524
522
527
531
526
525
530
528
520
519
524
522
514
513
518
514
507
509
514
508
503
506
511
505
502
507
510
504
503
509
510
505
506
513
511
505
506
512
509
504
507
515
511
507
512
517
510
507
513
516
509
507
514
515
508
509
516
515
509
511
517
515
511
513
518
514
510
516
520
514
511
518
521
513
510
517
519
514
515
522
522
515
516
523
517
510
517
531
537
546
562
568
548
520
498
488
484
491
506
511
507
509
519
519
514
517
523
520
517
521
526
520
516
521
525
520
518
524
527
521
521
527
528
524
524
530
529
523
526
532
528
524
527
533
529
524
527
529
520
515
517
516
508
505
509
507
499
499
504
501
495
497
503
498
494
498
503
497
493
499
504
498
495
499
502
497
497
503
502
496
499
506
503
499
501
507
502
498
502
506
500
497
503
507
501
499
503
503
496
496
503
502
496
497
505
502
496
499
506
502
498
503
507
501
496
500
503
496
494
499
498
490
491
498
497
491
492
500
498
492
493
499
502
510
528
545
547
537
522
496
470
467
482
491
490
493
501
501
495
498
505
501
497
500
506
501
498
503
507
501
500
506
509
504
503
510
511
506
509
517
516
510
514
523
520
517
521
528
523
520
526
529
520
516
520
520
512
509
513
510
501
499
505
504
498
499
506
502
498
502
507
502
498
503
507
501
499
505
507
501
500
507
506
499
498
504
501
495
498
504
500
496
499
503
497
493
497
500
494
492
499
502
497
496
503
504
498
500
506
503
498
500
507
503
499
504
510
505
502
509
513
506
503
509
510
504
504
509
507
500
502
509
507
500
503
510
506
502
503
506
504
511
529
546
551
551
542
517
484
474
488
498
499
506
515
514
510
514
521
517
514
519
523
518
515
520
523
516
515
522
524
519
520
526
524
518
520
528
526
522
526
532
528
524
530
535
529
526
533
534
526
522
526
525
517
515
519
514
506
507
513
507
500
502
507
503
500
505
508
503
500
506
508
502
501
507
507
500
500
507
506
500
502
510
506
502
505
510
505
502
507
513
507
505
511
512
506
504
510
509
502
504
510
507
501
502
507
502
498
502
507
502
498
504
508
501
498
504
505
499
498
503
502
495
496
502
499
493
496
503
499
495
497
503
502
509
526
542
545
545
537
514
483
473
483
491
494
500
509
508
506
510
517
513
509
515
520
515
510
515
519
514
513
520
521
514
515
522
521
516
519
527
525
521
524
531
527
524
529
533
527
524
530
532
524
521
525
524
513
508
512
507
499
499
506
503
498
500
504
500
496
499
504
498
497
502
505
499
498
504
505
499
498
504
502
496
499
505
501
495
499
505
500
496
500
503
498
496
501
504
498
497
503
503
497
498
506
504
500
504
511
506
501
503
508
503
498
502
507
501
499
505
506
499
499
505
505
498
496
502
505
511
525
545
549
538
522
500
475
467
477
490
492
495
503
505
499
500
508
509
503
506
515
514
509
513
520
516
512
517
524
520
518
524
528
522
520
527
530
525
526
533
534
528
531
538
534
528
531
536
530
524
527
530
522
515
519
522
514
512
517
517
508
506
514
513
506
507
514
511
505
508
514
508
504
509
515
508
506
512
516
509
508
514
516
509
510
517
516
509
510
516
513
507
510
516
511
508
514
519
513
509
516
521
515
512
517
517
511
512
518
515
508
507
512
508
504
508
515
510
506
509
511
506
511
528
544
550
553
550
528
494
476
483
491
494
500
508
505
503
508
515
511
508
513
518
512
510
517
520
514
514
523
523
515
515
523
522
516
518
525
522
518
523
529
526
524
530
536
531
529
535
538
531
529
534
532
523
520
523
519
511
511
516
511
506
510
515
509
505
510
514
508
507
513
514
507
507
514
515
509
511
517
513
507
510
518
514
509
513
517
511
507
511
515
508
506
511
510
503
504
511
510
503
504
511
508
502
505
513
510
505
510
516
511
507
512
516
510
508
514
513
504
502
510
507
501
503
509
506
502
505
508
502
503
517
534
542
550
557
545
512
485
481
488
492
499
509
508
502
503
511
508
504
508
514
510
506
511
516
511
510
516
519
512
512
520
521
514
515
521
519
514
517
523
520
516
521
527
522
518
523
526
520
516
521
520
511
507
512
510
502
501
505
501
494
494
501
497
492
495
502
497
494
499
502
496
493
499
500
494
494
501
500
494
495
502
500
494
496
503
500
496
499
503
498
496
502
507
500
498
505
506
500
499
505
504
498
499
506
503
497
499
506
502
498
502
508
502
498
504
508
502
500
506
508
503
505
512
510
501
502
508
506
501
503
509
503
497
500
504
498
494
499
503
495
490
498
508
513
525
544
549
537
519
499
477
469
478
493
496
497
503
509
504
502
510
515
509
508
515
515
509
509
517
516
509
511
518
514
508
511
517
514
510
516
523
517
515
522
526
520
520
528
530
524
524
530
528
521
519
523
517
510
510
512
505
500
504
508
501
497
503
506
499
498
505
505
499
499
505
503
498
499
506
502
498
501
506
500
495
499
502
496
493
499
500
493
492
499
499
492
493
500
498
493
495
503
499
495
500
505
499
495
502
508
502
500
507
509
503
503
510
509
501
502
508
506
500
503
509
505
500
503
507
504
509
525
541
547
550
546
527
493
476
481
487
489
498
509
510
506
510
517
512
508
513
519
514
511
517
521
514
512
519
521
515
516
524
523
517
519
526
524
521
524
530
527
525
530
534
529
526
531
534
526
523
528
525
516
513
517
513
505
505
511
507
501
503
507
502
499
503
507
501
497
502
505
500
498
505
505
498
499
507
506
500
501
508
504
499
502
508
502
498
502
507
501
498
504
506
499
497
503
505
500
501
508
508
503
506
515
513
509
511
516
510
506
510
514
508
506
511
514
507
506
511
511
505
505
509
505
503
516
534
543
549
554
543
510
479
474
483
487
493
502
505
499
500
507
507
502
504
511
509
503
506
513
510
506
511
517
513
511
518
523
517
516
524
527
521
522
531
530
525
527
533
530
525
528
534
529
524
526
529
521
514
517
518
509
507
513
514
506
505
511
510
504
505
512
508
502
506
513
508
504
508
514
507
504
510
514
506
503
509
510
503
502
508
506
499
500
507
505
499
502
509
504
500
505
510
503
500
505
507
500
498
503
503
497
498
506
506
500
502
509
507
502
505
509
504
499
503
506
498
495
500
502
495
495
503
504
498
498
504
502
499
508
526
535
543
553
551
525
493
478
483
486
492
504
507
501
499
506
507
501
502
510
509
506
509
516
512
508
513
519
513
509
515
520
514
513
521
523
517
517
525
526
520
523
531
529
523
526
531
527
522
524
528
520
514
517
518
510
507
512
512
504
503
509
507
501
504
510
507
501
504
510
506
503
507
514
509
505
511
515
507
504
510
511
505
505
511
509
502
505
513
509
504
507
513
509
504
508
513
506
502
508
512
505
503
509
510
502
502
509
508
502
503
510
507
504
507
513
507
502
507
511
504
501
507
509
503
501
508
509
503
504
511
508
501
506
522
529
537
551
560
544
516
493
481
476
481
494
500
496
496
504
505
499
500
508
506
500
502
508
504
499
503
509
505
502
507
512
506
502
508
510
505
505
513
515
510
512
521
519
514
516
523
519
514
517
521
513
507
509
511
502
498
503
504
497
496
502
502
496
497
504
503
498
501
508
503
499
503
507
502
499
505
509
503
501
508
509
503
503
509
508
502
502
509
506
501
503
509
506
503
507
511
505
502
507
509
503
502
509
511
505
505
513
514
507
508
513
509
504
507
513
507
502
505
510
503
499
504
507
500
498
503
502
500
509
528
540
543
545
539
512
481
473
480
484
488
498
506
501
499
506
508
503
503
510
511
506
508
515
514
506
507
515
512
507
511
517
512
509
516
521
518
518
525
528
522
522
529
530
524
524
532
531
523
523
527
521
513
515
519
511
505
509
513
505
502
508
511
504
503
510
511
505
505
512
509
503
504
510
505
502
505
510
504
501
507
511
504
502
508
510
502
501
508
507
501
503
510
509
505
507
512
508
503
508
514
509
506
513
518
512
509
515
517
511
510
516
515
507
509
517
515
508
511
518
514
510
513
516
509
510
524
538
545
553
561
547
514
488
485
489
492
501
512
510
505
508
516
511
507
511
517
511
507
513
516
510
511
518
520
513
514
522
522
516
519
526
523
520
526
534
530
526
530
536
531
529
535
537
530
527
532
531
523
521
527
524
516
516
521
517
511
514
519
514
510
515
519
513
511
517
519
512
512
520
520
513
512
519
517
511
513
521
517
511
514
520
514
510
516
519
512
508
514
516
509
509
516
516
509
508
515
513
507
510
516
512
509
512
516
511
508
514
516
509
506
513
515
509
507
513
512
505
505
512
509
504
506
513
505
499
505
520
525
535
552
560
544
518
497
483
479
488
504
509
505
506
513
511
507
511
519
515
511
517
523
518
515
521
524
518
516
523
525
519
520
527
526
521
523
531
529
526
531
537
531
527
531
537
531
527
532
534
526
521
525
524
516
513
518
515
508
509
515
510
503
506
512
507
503
508
513
507
504
510
511
504
503
509
509
502
503
509
507
502
504
511
507
501
504
510
505
500
505
509
503
501
507
509
503
502
510
511
504
504
512
509
504
505
511
507
502
506
512
506
502
506
511
506
503
508
509
503
502
509
507
499
499
507
504
498
500
506
502
497
501
503
497
498
513
529
536
545
553
540
508
482
478
481
484
492
502
501
495
499
506
502
498
503
508
504
501
507
511
506
505
512
513
507
506
514
514
507
508
516
514
509
513
520
516
514
520
526
521
518
524
527
520
517
523
521
511
509
514
510
502
502
508
503
496
497
502
498
493
497
502
497
495
501
504
498
497
504
504
498
497
504
503
496
497
503
500
495
498
504
498
494
499
503
497
495
501
503
497
495
500
502
496
497
505
503
498
499
506
502
498
502
509
505
502
508
514
508
505
510
512
505
502
508
508
501
501
508
506
501
502
508
504
500
502
506
504
510
525
541
545
544
537
516
483
470
478
484
487
494
505
504
500
503
511
509
505
509
515
510
507
515
519
514
512
519
522
517
516
524
524
518
519
526
524
519
522
529
525
521
526
531
527
524
529
532
525
521
525
525
518
516
520
517
509
508
512
508
501
504
510
504
498
503
508
502
499
505
508
502
501
506
507
501
501
508
507
503
505
511
508
503
506
512
505
500
504
509
502
497
503
506
499
498
505
506
500
502
510
509
504
508
515
511
504
507
514
509
504
507
510
503
500
505
507
501
500
507
507
499
497
505
510
515
529
548
549
538
521
499
474
468
480
493
494
496
503
506
500
501
509
511
506
508
515
514
509
514
521
518
514
517
524
520
516
522
526
521
521
528
530
525
525
534
534
528
530
538
535
529
530
536
529
523
523
526
518
512
515
516
508
504
509
509
502
501
508
507
499
499
507
504
499
501
508
504
499
502
508
502
499
505
509
502
500
507
509
503
503
510
509
503
504
510
507
502
505
510
506
501
505
510
505
503
510
515
508
508
516
518
511
510
517
517
509
509
515
511
505
508
514
509
506
510
515
509
506
509
512
512
521
541
556
557
552
541
512
484
482
497
503
503
508
514
510
507
512
517
511
509
516
519
512
510
519
520
514
514
521
520
515
517
525
521
516
519
525
520
516
522
527
521
518
523
526
521
520
526
525
517
516
521
517
508
508
514
509
503
506
511
505
500
505
508
501
498
504
507
501
501
508
508
503
504
511
508
502
503
508
504
500
505
510
505
501
507
511
504
501
508
510
504
503
509
508
502
504
511
508
503
506
512
508
504
509
516
510
508
513
517
512
511
517
516
509
510
518
516
508
509
517
514
508
511
517
512
508
511
514
507
504
514
527
532
545
563
563
540
513
494
484
484
495
508
508
504
507
515
510
506
510
515
509
507
512
516
510
508
516
517
511
512
519
518
513
516
523
520
516
521
528
525
523
528
533
528
525
531
533
526
525
530
528
519
517
522
517
508
508
513
508
502
504
509
503
499
503
508
502
499
504
505
499
498
504
503
497
496
503
501
495
497
504
500
494
498
503
498
495
501
505
498
495
502
504
497
496
504
504
497
498
505
503
496
499
506
502
497
501
506
502
499
505
509
503
502
510
512
505
504
511
511
505
505
511
508
502
504
510
506
501
505
510
505
500
504
511
515
525
544
556
553
541
525
497
475
478
492
497
498
503
511
507
502
508
515
510
507
513
516
510
509
516
518
512
511
518
517
511
513
521
518
513
515
522
519
516
521
527
522
520
528
532
527
526
531
531
523
520
524
520
511
511
516
510
503
504
509
502
496
500
504
499
495
501
502
496
494
501
501
494
495
502
501
495
497
504
500
496
499
504
499
496
502
507
500
497
503
505
498
497
504
504
497
498
505
502
497
500
507
503
499
503
508
504
502
507
509
503
500
507
508
501
498
504
503
497
499
505
503
499
502
508
502
496
503
517
524
533
549
555
539
516
497
482
474
480
495
501
499
501
509
508
504
508
515
511
506
510
516
511
509
516
519
515
514
523
525
519
519
526
527
521
522
530
528
523
527
533
530
526
531
536
530
526
531
532
524
521
526
525
516
514
519
517
510
511
517
514
508
510
515
509
505
509
515
509
506
512
515
509
508
514
514
506
507
515
514
508
510
516
512
508
511
516
510
506
509
513
505
502
507
509
502
501
508
507
501
502
510
508
502
505
513
510
503
504
508
503
499
503
506
498
495
500
502
496
496
503
503
497
497
502
500
501
515
534
543
548
548
535
502
475
477
487
490
494
502
505
499
500
507
507
502
503
511
508
503
507
514
510
506
511
517
511
508
515
520
514
513
520
523
516
516
524
526
521
522
528
526
522
524
529
523
517
519
522
514
507
511
512
504
501
507
507
501
501
507
507
500
500
507
503
497
500
507
503
500
504
509
503
501
506
509
502
500
506
507
500
499
507
505
500
503
510
506
500
503
509
506
501
506
511
505
503
509
511
505
504
511
511
504
504
512
509
504
506
513
510
507
511
516
51‡5ÄÄ   ˇ501
505
506
508
510
511
512
512
511
509
508
506
505
504
503
503
504
506
512
508
504
508
513
507
505
511
515
508
505
511
513
506
506
513
512
505
506
512
509
503
506
512
508
505
510
516
510
506
510
514
508
505
512
513
505
507
516
515
509
510
518
515
509
512
518
513
507
511
516
510
506
513
517
509
506
511
515
518
530
550
560
557
548
531
500
480
486
501
503
503
508
514
508
506
513
517
511
509
517
519
513
512
518
517
511
513
520
516
513
518
524
520
515
520
525
520
518
525
528
524
524
531
533
527
528
535
532
525
525
529
524
517
519
523
516
511
514
517
509
506
512
514
507
505
509
509
503
503
509
506
501
502
508
504
500
503
508
503
499
504
507
500
497
502
503
496
495
501
501
494
495
503
501
496
499
506
501
496
499
505
499
496
502
506
500
497
504
506
501
500
508
508
501
502
510
508
504
507
515
510
506
512
519
513
508
513
516
510
507
513
513
507
507
513
512
504
506
513
510
505
504
510
509
515
531
549
553
550
541
518
486
475
485
495
496
501
509
509
504
507
514
511
506
510
517
513
510
515
519
512
510
516
521
514
512
519
520
513
515
524
523
518
520
528
526
522
526
532
528
524
528
532
525
520
523
523
514
510
514
512
503
503
509
507
501
502
509
506
501
503
509
504
500
505
509
502
499
505
508
501
500
506
506
501
501
508
506
500
502
509
506
501
504
511
506
504
510
513
507
505
510
511
504
503
510
509
502
502
508
506
501
504
510
507
503
507
511
505
501
507
510
504
502
508
510
504
504
510
509
501
501
506
501
494
500
516
523
532
546
552
533
506
486
478
474
479
494
502
499
501
510
511
505
507
515
513
507
510
518
514
511
516
521
516
514
521
525
518
518
525
527
521
521
529
529
524
526
534
531
526
528
534
529
524
526
528
519
512
516
517
508
504
509
508
501
500
506
504
497
499
505
501
495
498
504
499
496
501
504
498
495
502
506
499
498
505
506
499
500
507
506
500
502
508
505
500
504
509
505
501
506
510
505
502
508
510
505
504
510
509
504
505
513
510
503
505
513
509
503
506
512
507
503
509
514
509
507
514
516
508
506
516
525
530
544
563
562
544
521
500
483
481
493
507
506
506
512
517
511
510
517
520
513
513
521
521
515
516
524
522
517
520
526
523
519
523
529
524
521
527
530
525
524
532
534
529
530
538
537
529
529
535
530
523
523
526
518
513
515
518
508
504
508
510
502
500
506
508
502
501
509
508
502
502
509
507
502
505
511
506
502
507
514
509
507
514
517
511
510
515
515
507
507
513
510
504
505
511
508
503
505
512
508
504
509
515
510
507
513
514
507
506
512
512
504
503
508
507
501
503
510
507
503
506
510
501
496
506
521
528
539
556
557
534
505
487
481
481
492
505
506
501
504
511
506
502
506
510
505
503
508
513
507
505
512
515
510
509
516
516
511
513
521
520
516
519
526
523
519
523
530
525
522
528
532
525
522
526
525
516
513
518
515
507
506
510
507
501
503
509
505
500
504
508
501
498
503
507
501
500
506
508
501
501
508
507
500
501
508
506
501
504
512
507
503
508
514
507
504
510
514
508
506
512
512
505
504
511
510
503
504
510
507
503
507
514
508
505
510
514
505
500
505
508
501
499
504
505
499
499
506
506
500
502
509
507
500
500
504
506
513
530
547
548
539
524
499
475
474
489
500
499
501
509
509
503
505
512
507
503
507
513
509
506
512
516
511
509
514
517
511
511
519
520
515
517
525
524
520
523
529
526
523
527
533
528
524
528
530
522
518
522
522
512
508
513
510
502
500
506
503
497
499
506
501
495
499
504
499
495
500
505
499
497
504
507
501
500
507
506
499
501
508
506
500
501
507
502
497
500
504
498
494
499
502
496
494
500
502
496
496
502
502
496
498
506
504
498
501
508
504
500
503
507
501
498
504
507
500
497
504
505
498
498
504
503
497
497
502
499
498
510
528
536
540
543
532
500
473
471
478
480
486
499
503
499
500
509
508
503
505
513
510
505
509
516
512
508
513
518
512
510
516
520
514
513
521
523
518
520
528
527
521
524
531
527
523
527
532
525
519
522
524
516
511
514
514
505
502
508
507
500
501
507
504
498
501
508
504
499
502
508
504
502
506
510
504
502
509
512
505
505
510
509
503
504
511
508
502
504
510
507
503
507
512
507
504
509
514
507
506
512
514
508
509
517
517
510
511
518
516
510
510
516
510
506
509
515
509
506
512
516
508
504
513
522
526
538
557
561
546
526
505
485
478
488
503
505
504
509
515
511
508
515
517
512
510
517
518
512
512
519
519
514
515
523
521
517
520
527
522
519
524
530
526
523
529
533
528
527
534
535
529
530
535
532
525
524
527
520
512
513
518
511
505
509
513
507
504
510
512
505
503
510
511
504
504
511
511
506
508
515
511
507
510
515
510
506
511
516
510
508
517
519
513
511
517
517
511
512
519
517
510
512
519
515
511
514
518
512
509
515
518
511
508
515
518
511
508
514
513
505
506
512
509
504
505
511
505
498
501
511
516
525
543
554
544
525
504
482
471
479
496
503
499
501
508
506
501
503
509
505
502
506
510
505
502
509
513
507
507
515
517
510
511
520
520
516
519
527
525
520
523
530
526
523
528
533
528
524
530
532
523
518
522
521
512
510
516
514
507
508
514
510
505
507
513
508
502
506
510
505
502
507
510
503
502
509
510
504
502
510
509
502
503
509
506
501
504
509
504
500
505
510
503
501
507
511
505
504
510
510
505
505
512
511
506
508
514
511
508
512
518
512
507
511
516
510
506
511
513
507
505
512
512
506
508
515
512
503
503
513
518
526
544
560
555
536
516
494
480
484
500
508
504
505
513
514
508
509
518
516
511
514
521
517
513
516
522
518
516
522
526
519
518
526
529
523
523
530
530
526
529
537
535
531
534
540
535
530
532
535
528
523
524
523
514
510
515
514
506
504
510
508
502
504
511
507
501
504
510
506
503
508
513
508
505
512
514
508
506
514
515
507
507
514
511
505
507
512
508
503
506
512
508
505
510
515
510
507
514
516
508
508
516
516
509
509
516
515
509
511
519
515
511
515
521
516
512
516
520
515
514
519
520
513
512
518
518
510
509
516
513
505
506
514
510
504
507
512
504
499
509
523
528
539
554
556
533
506
488
479
476
485
500
502
498
501
507
503
499
503
510
506
504
509
514
508
507
515
517
511
511
519
519
513
514
520
518
513
517
524
521
517
521
527
523
520
526
530
524
522
527
526
517
514
519
516
507
507
511
505
497
498
503
499
495
499
502
496
493
498
501
495
494
501
501
494
494
501
500
494
496
503
500
495
498
504
499
495
499
504
499
496
502
505
498
496
503
504
497
496
503
501
494
496
503
501
497
499
505
501
498
502
506
500
497
503
507
499
497
503
503
498
499
505
504
499
501
509
503
496
501
514
519
526
543
553
538
515
494
479
472
476
491
497
494
495
503
503
499
503
510
506
503
507
513
508
504
510
515
510
508
515
518
512
513
520
521
515
517
525
523
518
521
529
526
521
524
531
526
523
528
530
521
517
521
520
511
508
512
509
501
501
506
502
496
498
505
501
496
500
504
499
495
501
506
500
498
504
505
498
497
504
504
498
500
507
503
498
501
506
501
498
503
508
502
500
505
507
500
499
506
506
500
502
511
510
504
505
512
509
503
505
510
504
500
505
511
506
504
510
513
506
503
509
513
517
527
547
556
553
542
524
494
477
484
500
504
504
510
515
509
507
514
517
510
509
515
516
510
511
518
516
510
513
521
519
515
519
525
520
517
523
528
524
523
530
532
525
525
533
534
527
527
533
529
522
522
526
519
512
514
516
510
506
510
511
504
501
507
509
502
502
509
508
501
502
509
507
502
503
508
504
500
503
509
504
501
505
508
502
500
506
507
501
501
509
508
501
502
510
508
501
503
509
505
501
506
510
504
501
510
513
506
503
509
511
504
503
509
507
500
501
507
505
500
503
509
505
500
503
508
507
515
533
548
551
547
536
510
479
473
487
494
494
499
507
506
502
505
512
507
504
508
512
506
505
513
516
510
510
518
519
513
515
523
522
518
521
529
526
521
525
531
527
525
531
536
530
527
533
534
527
524
528
527
518
517
521
516
508
508
514
509
504
507
513
508
504
508
512
506
503
509
511
505
505
511
511
504
506
514
511
505
507
514
510
506
510
514
509
505
510
513
507
505
510
511
504
502
509
508
502
503
510
507
501
503
508
503
499
503
508
504
502
506
510
505
505
512
515
509
508
514
513
506
508
514
510
503
505
510
507
502
506
511
507
504
511
513
504
503
516
526
532
545
559
553
528
502
488
481
482
494
505
502
499
504
509
504
502
508
512
507
505
512
512
505
506
514
513
507
510
517
514
510
515
521
517
514
520
525
520
518
525
528
522
522
528
528
521
522
527
523
515
515
518
511
504
504
508
501
496
500
502
497
494
499
501
495
493
500
501
494
495
503
501
495
498
503
498
494
498
503
497
492
497
500
495
492
498
500
493
492
498
498
491
494
501
500
496
499
505
499
495
500
505
500
497
504
507
501
501
509
510
504
504
510
509
501
501
507
503
498
501
508
503
499
503
507
501
496
502
511
514
524
542
552
546
532
516
490
472
476
489
493
494
500
508
505
501
507
512
507
505
512
516
511
510
517
519
513
513
520
519
514
517
524
521
518
522
529
526
523
529
534
529
528
534
537
531
529
535
534
526
523
527
522
514
513
518
513
507
508
513
507
502
508
511
504
501
508
512
506
505
511
511
504
506
513
510
504
506
512
506
502
505
510
505
501
508
511
505
502
509
512
506
506
514
513
507
509
517
514
508
511
518
514
508
512
517
511
507
513
516
508
506
513
515
507
508
516
515
508
508
513
510
510
524
542
551
556
560
549
515
487
485
493
496
501
513
516
510
510
519
517
511
513
520
517
512
515
521
516
513
518
524
519
517
524
527
521
520
528
529
523
524
532
531
526
528
535
531
527
529
534
528
521
523
525
517
512
515
514
504
501
507
507
500
500
506
503
498
499
506
502
497
500
505
501
497
503
507
501
498
505
506
500
500
507
505
497
497
503
501
496
498
504
500
495
499
504
500
496
502
506
500
498
505
507
501
503
511
511
503
502
508
505
498
499
504
499
495
501
507
503
500
504
508
502
498
504
508
511
521
541
552
550
539
522
491
473
480
496
498
498
504
509
504
501
507
510
503
502
509
512
506
506
514
514
508
510
517
514
508
510
518
513
509
514
519
515
513
520
525
519
519
528
529
522
523
529
527
519
519
523
518
511
513
517
510
505
508
511
505
502
507
510
502
501
508
508
501
502
509
506
500
503
510
508
503
505
511
506
501
506
510
504
501
507
508
502
501
508
508
501
501
508
506
500
502
509
506
500
503
508
504
502
507
512
506
505
512
513
505
505
514
514
507
506
512
508
502
504
509
505
500
505
511
505
499
503
510
512
521
540
553
551
537
519
491
472
477
492
496
495
499
506
503
499
503
509
504
501
507
510
505
504
512
515
508
508
516
516
510
512
521
519
515
519
526
523
521
527
532
527
524
530
534
528
526
531
530
520
518
524
521
512
512
515
510
503
504
509
504
500
505
509
502
500
507
511
505
504
511
512
507
507
515
514
508
510
517
513
507
508
514
508
504
509
514
507
504
510
513
505
504
510
510
503
503
510
507
500
502
507
503
499
504
510
506
502
506
511
505
503
507
509
502
502
509
509
503
502
509
506
500
503
509
505
500
504
508
501
502
518
534
541
548
553
539
507
483
481
484
485
494
507
507
501
504
511
506
502
508
514
508
505
511
514
508
506
513
516
511
513
521
521
515
517
525
523
518
521
529
525
522
528
534
529
526
533
536
527
523
527
526
515
512
516
513
504
505
510
506
499
500
506
501
498
503
508
503
501
506
509
503
502
508
509
504
505
511
511
505
507
514
510
505
508
514
509
504
508
513
507
504
511
514
508
507
515
515
508
508
514
512
506
508
516
513
507
509
514
508
505
510
512
504
501
508
510
504
503
509
509
503
502
508
505
501
513
530
540
547
555
549
520
488
477
482
484
491
502
506
498
498
508
509
502
504
512
511
507
509
517
513
508
513
518
514
512
518
522
517
516
523
525
519
520
527
528
522
524
531
529
523
526
532
528
523
525
528
520
515
517
517
509
505
511
512
503
501
506
505
499
500
506
503
497
499
506
502
499
503
509
502
498
504
508
501
500
507
509
503
504
512
510
503
505
512
509
502
505
510
506
502
506
511
506
503
509
512
505
503
509
510
505
505
512
512
508
510
516
511
505
509
516
510
505
509
513
507
504
510
512
505
504
510
509
501
502
514
523
529
545
561
557
535
511
492
481
484
499
509
506
504
510
511
505
506
512
513
507
508
515
513
507
510
517
513
508
514
521
517
514
520
525
521
520
527
530
524
524
532
532
526
527
535
533
527
528
534
528
522
523
526
518
512
515
517
509
505
510
511
504
502
509
509
503
505
512
509
503
506
512
508
504
508
515
509
505
510
513
507
506
512
513
507
507
515
514
507
507
514
510
505
508
515
509
504
507
511
506
503
509
512
505
502
508
510
504
503
511
512
506
508
516
513
507
509
514
508
504
509
514
507
504
509
512
504
502
509
510
504
505
512
508
500
505
522
530
539
553
558
537
506
486
483
481
487
499
505
498
497
505
507
501
501
507
506
500
502
509
506
501
504
511
508
505
511
516
511
510
517
520
514
515
525
526
520
520
528
526
521
523
530
525
519
521
524
516
510
512
513
505
501
505
504
496
495
501
500
493
493
499
497
492
494
500
495
490
494
500
494
490
495
499
492
490
496
499
493
493
501
502
496
497
504
501
497
500
506
502
497
500
507
502
500
505
509
504
502
509
512
505
504
510
510
505
507
514
512
507
510
516
511
507
510
515
508
503
509
512
506
503
510
511
504
503
509
505
497
501
517
525
532
546
555
540
514
492
483
477
478
492
502
499
499
507
509
503
503
511
511
505
506
513
510
506
510
517
513
510
515
521
516
513
520
524
519
519
526
527
521
520
528
528
523
526
532
529
522
524
528
521
515
517
519
510
506
510
511
502
500
505
505
499
500
506
505
500
502
509
505
501
505
512
507
502
508
512
506
503
509
511
505
503
510
510
503
503
511
509
503
505
511
508
504
507
513
507
503
507
510
504
503
510
514
508
507
514
515
511
514
521
516
509
510
517
512
506
508
512
507
504
509
513
506
504
511
513
505
504
516
527
532
547
564
560
537
513
494
484
486
500
510
506
503
509
513
507
506
513
515
509
508
516
516
510
511
519
516
511
516
522
518
512
517
523
518
517
523
526
521
521
529
530
525
526
534
534
528
529
535
531
523
523
526
519
513
515
518
512
507
511
513
507
506
512
513
507
506
513
512
506
508
515
511
505
508
514
508
504
507
512
506
503
509
512
505
503
510
512
506
506
513
512
505
507
515
510
505
508
514
509
505
510
516
511
508
515
518
513
510
516
518
512
513
519
516
509
510
516
511
505
507
513
507
502
507
511
504
502
506
505
498
503
521
533
539
549
555
536
504
482
482
485
489
498
506
502
499
503
507
501
499
506
509
503
503
510
510
505
506
513
511
505
508
515
511
509
514
520
514
511
518
524
519
518
525
528
522
520
526
526
519
518
523
518
510
510
513
505
499
501
504
497
492
496
499
493
491
497
500
494
494
502
502
496
498
505
502
497
499
505
502
498
501
506
501
497
502
505
498
496
503
505
501
501
507
506
499
499
505
502
496
499
506
502
497
501
505
500
496
502
504
498
498
505
507
501
500
509
508
502
503
510
506
501
503
507
502
498
502
507
502
498
504
506
500
498
503
501
498
507
526
538
541
544
537
509
479
472
481
484
488
498
505
501
499
506
509
503
502
509
509
503
505
513
512
507
508
516
513
509
513
519
515
513
518
523
517
516
524
528
523
522
531
532
526
527
534
532
524
523
527
520
513
514
517
509
503
506
510
503
501
506
507
500
498
504
505
499
499
505
503
497
499
504
500
495
499
505
500
496
502
506
500
499
506
508
502
501
508
508
502
503
509
506
501
505
513
508
503
506
511
506
503
510
515
510
508
514
515
508
507
514
514
506
508
514
511
505
507
513
509
504
508
512
505
503
517
531
537
545
555
546
519
491
482
479
479
490
504
505
502
506
514
510
506
511
517
511
508
514
517
512
512
521
524
520
521
528
528
522
524
531
530
525
529
535
532
530
536
540
534
531
538
540
533
530
533
531
521
518
522
518
510
509
514
509
504
506
511
507
503
506
509
504
501
506
509
503
501
509
510
504
504
512
511
506
508
515
512
508
512
517
511
507
512
517
512
509
515
517
510
509
514
514
508
509
517
516
509
513
522
519
513
515
520
513
508
512
515
506
503
509
511
505
503
510
511
505
505
509
507
504
515
534
544
550
558
552
523
490
481
488
492
498
510
514
509
508
516
517
510
511
518
517
512
514
521
518
513
516
522
518
515
520
524
519
517
525
528
522
522
529
530
525
526
533
530
525
528
533
528
522
524
527
519
512
515
517
509
505
511
512
503
501
508
508
502
503
508
505
499
502
508
504
499
504
510
505
502
508
511
505
503
510
512
506
505
511
511
504
505
511
509
503
506
512
508
503
506
511
506
502
507
511
506
505
512
514
509
510
516
513
505
507
516
513
506
507
513
508
504
509
515
509
505
511
513
505
502
513
524
528
541
559
559
539
515
496
483
483
496
509
507
504
508
514
510
508
514
517
510
507
514
516
510
509
516
516
510
512
520
516
512
517
523
519
515
520
525
521
518
526
530
524
522
529
530
524
523
528
524
515
515
519
513
505
506
509
502
496
499
503
496
493
498
501
494
493
500
502
495
496
503
502
497
498
505
501
496
499
505
500
496
501
504
496
494
501
504
497
496
504
504
498
498
505
503
498
500
506
502
497
500
506
501
497
502
507
501
500
508
511
505
505
514
515
509
510
516
513
508
510
517
513
507
510
515
509
505
510
515
508
505
509
509
503
508
526
537
543
552
555
534
501
482
485
488
492
500
506
501
498
504
508
501
499
505
507
501
500
506
506
499
499
505
503
498
500
506
501
496
500
505
501
499
505
508
502
501
508
510
504
505
513
513
507
506
510
505
497
498
501
496
491
493
496
490
486
491
494
487
485
491
492
485
485
494
494
488
489
495
492
488
492
499
495
490
495
500
495
492
497
499
492
492
500
500
494
494
502
502
498
500
507
504
499
500
506
500
496
501
506
501
498
505
509
505
504
508
508
500
500
507
506
500
500
506
502
497
500
506
502
497
501
506
498
495
508
522
528
538
552
548
524
497
483
477
475
485
498
499
495
499
507
503
499
504
510
504
503
509
512
506
505
513
514
508
509
517
516
510
513
520
517
514
519
526
522
518
524
529
524
521
527
529
523
521
526
524
516
514
519
514
506
506
509
503
497
499
504
499
494
499
504
498
496
503
505
499
498
504
505
499
500
507
507
502
504
511
508
503
507
512
508
503
507
511
505
502
509
512
506
506
513
513
506
507
515
513
507
510
518
514
509
512
518
512
508
513
517
510
507
514
516
509
507
514
514
506
505
510
510
512
525
542
549
548
542
525
492
475
482
494
497
501
508
510
505
506
514
514
508
509
517
513
506
507
513
508
503
507
512
507
504
510
514
508
507
514
517
511
512
520
521
516
518
526
524
519
520
523
517
511
512
514
505
499
502
503
495
492
497
496
490
490
498
497
490
491
498
495
490
492
499
494
490
495
500
495
493
498
501
495
493
500
502
495
494
501
500
494
495
501
498
492
495
500
496
492
496
502
496
494
499
503
498
497
505
507
500
501
510
510
503
503
507
504
498
501
507
502
498
503
508
501
498
503
506
500
497
502
503
503
515
535
548
551
549
538
506
479
478
492
495
496
503
508
503
502
509
513
506
505
513
514
509
511
518
516
510
513
521
519
515
520
526
522
519
525
530
524
523
531
534
528
528
535
536
529
529
535
532
524
523
527
520
513
515
518
510
505
508
511
505
502
507
509
503
502
508
508
502
503
511
509
502
505
511
508
503
506
511
506
501
505
509
503
501
508
511
504
503
510
509
502
504
511
508
502
505
511
507
502
506
512
507
505
510
514
508
508
514
515
508
506
513
513
506
507
514
511
505
507
513
509
504
509
514
507
501
506
515
520
530
549
558
548
529
509
486
477
485
500
502
499
503
510
506
503
507
514
509
507
514
518
511
510
517
520
514
515
523
524
519
520
528
525
520
523
530
528
524
529
534
529
525
532
536
528
526
532
532
523
520
525
522
514
513
518
514
508
510
516
511
506
510
516
509
505
512
516
508
506
512
514
507
507
513
513
507
508
515
510
504
506
513
508
504
507
511
505
501
506
509
503
501
507
509
503
503
510
510
504
507
514
511
506
508
514
507
502
507
512
506
503
509
514
508
506
512
513
506
506
514
512
503
503
509
505
500
504
510
504
499
501
504
496
497
513
527
534
544
551
536
505
480
478
481
485
494
505
502
497
502
510
506
503
509
515
510
508
516
518
512
510
518
518
512
513
521
520
513
516
524
521
517
521
527
524
521
528
533
527
526
532
534
526
523
528
525
516
513
517
512
504
504
509
504
499
501
507
502
499
504
508
503
502
509
511
504
502
509
509
502
503
510
507
500
502
509
505
500
503
508
502
498
502
506
499
497
504
506
499
499
506
505
498
499
507
505
499
500
507
505
501
504
509
502
499
504
507
499
496
502
503
496
495
503
504
498
497
502
498
494
504
522
532
539
547
544
518
487
476
478
478
485
499
505
502
503
509
510
505
506
514
513
508
510
518
515
512
517
522
518
516
522
526
519
518
526
528
521
521
528
528
523
525
534
532
526
528
534
528
522
525
528
520
514
517
517
507
504
508
508
500
499
506
505
499
499
505
503
498
501
507
502
497
501
506
501
497
503
506
500
498
505
507
501
500
507
506
501
503
509
507
502
505
512
507
504
508
514
508
504
511
516
510
508
513
514
507
507
513
511
505
507
513
509
503
506
512
508
504
508
512
506
510
528
543
549
555
557
539
504
483
485
491
495
503
512
509
505
509
516
513
509
515
521
516
514
521
524
518
517
524
524
518
519
526
525
519
522
528
525
522
526
532
528
525
531
535
531
529
536
538
530
527
531
529
520
518
522
518
510
511
516
512
506
509
515
510
507
512
517
511
508
514
515
508
506
513
514
507
507
514
512
506
508
514
509
503
506
510
505
502
507
511
505
502
508
510
503
501
508
508
502
503
509
507
503
505
511
506
500
504
509
504
499
502
505
499
497
504
506
499
499
506
506
497
497
507
514
520
536
553
551
532
510
490
475
477
491
501
497
496
503
505
499
499
504
505
499
500
508
506
501
503
510
506
502
506
512
508
505
511
515
510
507
514
517
511
511
520
520
514
515
522
519
514
516
521
516
509
511
514
507
502
505
507
498
496
502
503
495
494
501
500
493
494
501
499
493
497
504
500
496
500
505
500
497
503
506
499
497
503
504
498
498
505
505
498
500
507
504
498
502
509
504
500
504
509
503
501
506
509
503
501
508
510
505
505
511
510
504
505
513
510
504
506
511
506
501
506
511
505
502
509
511
502
498
507
517
521
534
552
553
534
510
490
475
475
487
501
500
497
503
509
504
502
508
511
505
505
513
514
508
507
514
513
508
510
517
515
510
514
521
517
514
520
527
521
519
526
530
524
523
530
530
524
523
529
525
516
516
521
516
510
511
515
509
505
508
512
504
502
508
510
503
502
509
510
504
505
512
510
503
505
511
507
503
507
513
508
505
510
515
508
505
509
511
503
501
509
509
503
504
511
508
502
503
510
507
502
506
511
505
503
508
513
507
504
509
512
504
503
508
507
499
500
507
503
496
497
504
501
497
501
507
502
498
503
504
496
497
513
527
533
542
553
540
511
485
478
476
477
489
501
500
497
501
508
504
498
504
509
503
501
508
511
506
506
514
515
509
511
518
516
511
515
521
517
514
519
526
522
519
526
531
526
526
534
536
529
528
533
529
519
518
523
518
509
507
511
504
498
503
508
501
496
501
503
497
496
502
504
497
496
503
503
498
499
506
503
497
501
509
505
500
503
507
502
498
504
508
501
499
507
508
502
501
508
506
499
501
508
506
502
504
510
508
505
508
511
504
502
507
510
502
500
506
508
501
502
509
509
502
503
508
503
498
505
523
531
540
552
555
533
504
488
485
482
489
504
510
506
507
515
514
509
513
521
519
514
518
525
521
517
521
526
521
517
524
528
522
521
529
531
526
526
533
531
527
530
538
535
530
533
539
533
528
530
531
522
517
520
519
509
506
511
511
503
504
511
508
502
504
511
507
502
506
514
508
503
508
513
506
504
510
514
507
507
514
514
507
507
515
513
507
509
516
512
508
511
518
512
509
514
518
511
508
514
516
510
510
517
517
510
512
520
517
511
513
520
515
510
513
517
510
507
513
517
510
507
514
516
508
504
510
515
518
531
552
560
554
539
518
489
479
490
506
506
504
509
515
509
508
515
518
511
509
516
516
509
510
518
515
509
512
519
516
513
518
524
519
516
522
526
520
519
526
528
522
524
532
533
525
526
533
529
522
522
525
519
512
514
518
511
506
510
513
506
504
511
512
504
502
508
507
502
503
510
509
504
507
513
509
505
508
513
508
504
511
516
510
508
514
515
508
507
514
512
506
508
516
514
508
509
516
511
506
510
515
508
504
510
514
507
506
515
517
511
510
517
515
509
511
520
517
511
514
520
515
512
516
519
513
510
516
519
511
509
516
517
509
507
511
510
510
522
541
550
552
548
532
498
475
477
490
493
495
503
505
499
498
503
505
499
500
508
507
501
504
511
509
506
510
516
511
508
513
518
512
511
518
522
516
515
522
523
517
519
526
525
520
522
528
523
517
519
523
515
509
511
513
505
501
506
506
499
497
504
505
499
499
507
506
499
500
507
503
498
501
506
500
496
502
506
500
497
502
504
498
497
503
503
497
498
505
502
496
498
504
499
494
497
502
497
493
497
500
496
495
502
505
498
498
505
506
499
499
506
505
501
503
510
506
502
506
513
508
505
510
515
509
506
511
513
507
506
513
512
505
505
512
509
502
505
511
507
503
505
507
501
505
521
537
543
546
542
521
487
471
480
487
490
497
506
504
500
504
511
506
502
507
513
508
505
511
515
509
507
512
514
508
507
516
517
511
514
522
520
515
519
526
523
520
525
531
526
523
528
532
525
522
526
525
516
514
518
514
505
505
511
506
500
503
510
505
501
505
509
503
500
505
507
501
500
506
507
500
501
509
508
501
502
509
506
501
504
509
503
497
500
503
498
494
499
502
496
494
500
502
496
496
504
503
496
497
504
500
495
498
505
499
495
499
506
501
497
501
502
496
496
502
501
494
495
501
499
493
495
502
499
493
495
500
498
502
519
535
540
542
541
525
492
472
476
482
484
491
502
502
497
500
507
504
500
503
510
505
502
508
515
510
510
518
521
515
515
523
523
517
519
527
526
521
525
531
527
523
527
533
528
524
530
534
527
523
527
528
519
515
520
518
509
509
515
512
506
508
514
510
504
507
512
507
504
509
514
507
504
510
513
506
505
513
513
507
508
516
513
506
509
515
510
505
510
516
510
507
512
515
507
505
511
513
507
506
514
514
507
510
519
516
509
510
516
512
507
511
515
508
505
510
513
505
503
510
511
503
500
505
505
504
516
535
545
549
547
535
503
476
476
489
493
496
505
508
503
502
508
509
503
504
513
511
504
506
514
512
507
510
518
515
512
516
520
514
511
518
522
517
516
524
526
520
521
529
529
523
523
528
524
517
518
522
514
507
509
511
503
499
505
507
500
498
504
505
499
499
506
506
500
502
508
504
499
501
507
502
498
503
507
501
498
504
507
499
497
504
505
500
501
508
506
500
502
510
507
503
507
513
508
503
508
512
506
504
511
514
507
506
513
514
508
509
516
513
505
506
512
508
501
504
509
503
499
504
508
501
499
505
505
495
494
508
519
526
538
551
540
512
486
474
470
475
487
498
495
494
499
503
497
496
503
506
501
501
508
508
503
505
514
511
505
509
516
513
509
513
520
515
512
517
521
515
514
522
524
519
520
528
527
520
521
526
521
513
512
516
510
503
505
510
503
499
504
508
502
500
507
508
501
502
509
508
500
500
507
505
500
502
506
501
497
502
506
500
497
502
506
499
497
503
504
498
498
505
504
498
500
507
505
498
501
507
503
499
503
508
503
500
506
510
504
503
509
512
505
503
509
508
503
505
512
509
503
506
512
507
504
509
514
507
503
506
507
503
510
528
542
546
550
547
523
490
477
487
493
494
501
508
504
502
508
513
507
504
510
514
510
509
516
517
511
511
520
518
512
515
522
519
514
517
525
521
518
524
529
524
522
528
531
525
525
531
532
525
524
529
525
517
518
523
517
509
511
515
509
504
508
512
506
503
509
511
503
502
509
509
503
504
510
508
503
505
511
506
501
504
509
505
502
507
511
504
502
508
510
504
502
509
509
503
504
513
511
505
507
512
507
502
508
515
509
504
510
517
511
509
514
515
508
508
514
513
506
506
514
511
505
507
513
508
503
505
508
503
506
522
538
544
549
551
534
500
478
481
488
491
499
510
508
503
505
512
509
506
511
516
511
508
514
518
512
509
516
519
513
514
522
521
516
518
526
523
518
522
529
526
522
526
532
527
524
530
532
526
523
528
528
519
515
519
515
506
504
509
506
500
503
508
503
498
503
508
501
497
503
506
498
496
502
503
496
497
505
503
496
497
504
501
495
498
503
498
495
500
506
499
496
502
506
500
498
505
505
499
500
508
506
500
503
511
509
502
505
510
505
500
505
510
503
500
506
510
504
503
511
512
504
502
508
511
516
529
547
551
545
532
512
483
470
479
489
491
494
503
508
503
502
509
510
505
506
513
512
506
508
515
513
509
513
520
517
514
520
523
517
516
524
527
520
520
529
531
525
526
534
532
526
529
534
527
520
522
525
518
512
514
517
510
506
511
513
506
504
511
510
504
505
513
512
507
509
516
512
507
512
518
513
509
514
519
513
511
519
521
515
513
519
518
511
512
519
516
510
511
517
513
509
513
519
514
510
514
516
507
504
510
511
504
503
509
507
500
501
508
505
499
502
507
501
496
507
522
528
538
552
551
527
499
484
482
482
491
506
508
502
504
513
510
505
506
513
508
504
510
516
510
508
515
520
515
514
521
522
516
517
525
526
520
521
529
527
523
527
533
528
525
530
534
527
523
526
527
517
513
517
516
506
505
511
509
501
501
507
504
498
501
508
503
498
503
508
503
501
507
509
504
503
509
511
505
505
513
512
506
508
514
508
503
506
511
506
503
509
514
508
506
513
516
509
507
516
517
511
512
517
514
507
508
513
508
501
504
509
505
500
505
509
503
500
504
503
496
502
519
532
538
547
551
531
497
478
482
487
492
500
508
503
500
506
512
506
503
509
512
505
505
513
513
506
507
515
513
507
510
518
514
510
515
521
517
515
521
526
521
521
528
531
526
526
533
532
524
523
528
524
516
517
522
516
510
513
518
511
506
510
513
505
502
508
510
504
504
511
510
503
505
512
509
503
505
512
507
502
506
511
505
502
508
512
504
502
509
511
505
504
511
511
504
504
510
508
502
505
510
506
502
507
513
507
504
511
515
509
506
511
512
505
505
510
507
500
502
508
505
499
502
508
503
499
500
504
502
509
527
544
547
547
539
515
483
474
487
496
497
502
509
505
501
505
511
507
503
507
512
507
504
510
513
506
504
511
512
505
506
513
513
507
510
518
515
510
513
522
518
515
518
523
517
515
520
523
515
511
516
515
507
504
510
506
499
499
505
501
497
501
506
500
496
499
503
498
495
502
504
497
495
503
505
499
499
507
506
500
503
510
505
501
505
511
506
503
508
511
506
504
509
511
504
504
510
508
500
500
507
504
498
501
508
504
499
502
508
503
501
507
512
507
506
514
516
508
507
514
514
507
507
513
509
502
506
512
508
503
507
513
507
501
507
517
521
530
549
559
547
527
506
486
477
485
501
504
502
504
510
506
503
508
514
507
503
509
511
504
501
508
511
506
506
513
514
508
509
517
516
511
516
524
521
517
522
528
523
521
529
532
526
524
530
530
521
518
523
520
510
509
514
509
502
504
509
503
498
502
505
499
496
501
505
499
497
505
507
501
501
508
506
500
500
506
502
497
501
507
502
498
502
507
501
499
505
508
502
500
507
508
502
502
510
509
503
506
515
512
506
509
516
513
508
510
513
507
504
510
511
504
502
508
509
502
502
509
508
502
505
511
504
499
508
525
532
541
553
553
531
502
486
482
479
486
501
507
502
504
511
510
506
510
518
515
510
514
519
513
509
515
520
515
514
521
523
516
516
524
525
518
519
527
525
521
525
533
530
526
530
536
530
526
529
530
521
516
520
518
510
508
514
513
505
506
513
510
503
506
511
507
503
507
514
509
506
512
517
511
511
518
520
513
511
518
517
510
511
519
516
511
513
520
515
510
514
519
513
510
515
519
513
512
519
520
514
515
522
520
511
512
519
516
508
508
513
507
501
504
509
503
500
505
507
499
496
502
508
511
524
545
553
544
529
509
482
470
479
495
497
496
501
507
502
500
506
509
503
502
509
511
504
504
511
510
503
505
513
511
507
510
516
512
509
515
521
515
513
520
524
518
517
525
526
520
520
526
522
513
512
517
513
505
507
512
505
500
503
508
502
499
504
507
499
496
503
503
495
496
503
501
496
498
505
500
495
500
505
500
498
503
508
502
499
505
506
501
501
507
507
501
502
509
507
501
504
510
505
500
504
512
507
504
511
517
511
507
511
513
507
505
511
511
504
502
509
507
502
504
511
506
501
503
506
501
503
518
534
541
546
547
530
495
475
481
489
491
497
506
504
499
503
511
507
501
506
512
508
506
511
516
509
508
517
520
515
516
524
525
519
520
527
525
521
525
532
528
523
528
534
529
526
530
533
525
520
524
523
513
510
516
512
504
504
509
505
499
501
506
501
497
500
505
500
497
504
509
504
502
509
511
504
503
511
511
505
506
514
510
505
507
514
508
504
507
512
505
502
507
510
503
500
505
507
502
501
507
506
500
503
510
506
502
506
512
508
506
511
515
508
504
510
513
507
506
513
514
507
507
515
514
507
509
516
510
502
507
521
526
536
554
564
550
527
506
491
485
492
507
512
507
508
516
515
509
513
521
518
513
517
522
518
514
520
524
517
515
521
523
517
516
524
525
519
521
529
527
522
525
533
530
527
531
537
531
527
532
533
524
520
524
522
513
509
514
513
505
505
511
506
500
501
506
503
498
501
507
502
498
504
508
502
499
505
508
501
500
507
507
501
502
509
507
501
503
510
507
501
504
509
503
499
505
508
500
497
503
504
498
498
506
507
502
503
510
507
502
506
513
508
503
506
511
506
502
507
509
503
500
507
509
502
502
508
507
500
501
507
509
512
525
544
548
544
533
513
482
470
482
495
496
498
506
508
503
503
510
509
504
507
515
512
507
510
517
512
509
515
521
515
513
520
522
514
512
521
524
517
518
528
527
520
522
527
524
520
522
527
520
512
515
518
508
503
507
507
498
496
502
503
497
496
503
502
496
497
504
501
496
499
505
501
496
500
504
499
496
502
505
499
497
504
505
498
497
505
502
496
498
505
501
496
499
505
500
497
502
506
500
499
506
508
501
502
509
508
500
500
505
503
497
498
504
500
495
499
505
500
497
503
508
501
497
503
509
511
522
542
552
547
535
519
492
474
478
492
496
499
506
514
510
508
514
519
513
511
518
520
513
512
520
521
516
517
525
522
517
520
528
523
518
522
528
524
521
527
531
526
523
530
534
529
527
532
530
522
521
525
520
511
511
515
508
502
504
508
502
500
506
508
500
499
507
508
501
501
508
507
500
501
508
505
500
503
509
505
501
504
509
504
502
507
511
505
504
512
513
505
505
511
510
505
507
515
512
506
510
518
515
511
515
520
513
511
515
517
508
505
512
512
505
504
511
509
502
503
509
508
509
523
542
549
551
548
535
502
480
483
493
497
504
515
517
510
510
518
517
512
514
522
519
515
519
526
522
518
524
528
522
520
526
529
523
523
530
531
525
526
535
535
528
531
538
534
529
533
537
530
524
525
526
517
512
516
517
509
505
510
510
502
503
510
508
501
503
511
507
501
504
510
506
502
506
510
504
503
509
510
503
502
509
508
501
501
508
507
501
504
511
507
502
506
512
506
503
508
513
507
504
509
511
507
508
514
512
504
506
512
509
503
503
509
505
500
504
509
503
500
504
508
499
496
507
518
523
535
553
554
533
507
489
477
477
489
503
502
499
504
510
505
502
508
513
507
505
511
513
506
506
513
513
507
509
516
513
507
509
515
511
506
512
518
513
511
519
523
516
516
523
524
516
514
521
519
510
509
514
509
503
505
510
504
499
502
506
499
496
502
504
498
497
505
506
499
500
508
509
503
504
509
506
501
503
509
505
501
507
512
506
502
508
510
501
499
506
507
500
501
509
507
500
501
509
507
503
507
513
509
506
512
518
511
509
518
522
515
512
518
517
508
507
514
511
504
505
512
509
503
506
512
507
503
507
510
503
505
522
536
542
549
554
537
503
480
483
489
493
502
512
509
504
507
514
509
506
511
516
511
510
516
518
512
512
519
519
513
514
523
522
516
518
526
523
519
524
530
526
523
530
535
529
527
533
535
526
522
528
527
519
517
522
518
511
511
516
510
505
508
512
506
502
506
510
503
502
508
510
502
502
511
511
504
505
512
510
504
506
511
507
503
507
512
506
502
507
510
504
502
508
510
503
503
511
510
502
503
510
507
501
503
509
505
500
504
510
505
502
509
515
508
505
514
517
508
506
512
511
503
504
511
507
501
504
509
505
502
506
512
506
501
505
507
505
514
532
545
547
547
539
511
479
473
485
491
493
500
508
505
502
507
512
506
503
509
512
505
504
512
514
507
507
515
514
507
510
518
515
510
514
522
516
513
519
525
520
518
526
529
523
522
528
529
521
521
526
521
512
510
514
509
501
502
507
501
497
502
507
500
497
504
508
502
501
508
509
502
503
510
507
500
502
508
503
497
501
507
501
496
501
506
500
497
504
506
499
498
504
505
498
499
507
505
499
503
509
505
499
502
508
504
501
507
511
506
503
509
510
502
500
506
506
498
498
506
503
497
499
506
501
497
502
507
498
493
502
515
518
528
544
548
530
507
488
474
468
476
492
497
495
499
506
504
502
507
514
507
504
510
515
508
507
514
517
511
510
518
518
513
513
521
518
514
517
524
520
516
522
528
523
520
526
530
523
520
525
525
515
511
517
513
504
502
508
504
497
498
503
498
494
498
502
497
494
500
504
497
495
503
505
498
500
508
507
499
500
507
505
499
501
507
503
499
503
508
504
502
508
510
503
501
508
509
502
502
511
510
504
506
516
513
507
509
515
510
506
511
515
507
503
509
513
507
505
513
514
507
506
511
511
510
522
542
552
553
552
539
506
481
482
493
497
500
511
515
509
508
516
517
510
511
520
519
513
516
523
519
513
517
525
521
518
523
528
523
521
529
532
526
525
533
534
529
530
538
536
529
531
536
531
524
526
530
522
515
517
520
511
507
513
515
507
504
510
510
504
505
513
511
505
507
514
510
506
510
516
509
505
509
514
507
504
511
513
506
505
512
513
506
506
514
511
505
507
513
508
503
508
513
506
501
506
510
503
501
509
512
506
505
510
509
501
502
509
507
501
503
509
505
501
505
511
504
501
505
507
502
508
525
539
545
551
549
526
492
475
482
488
491
499
506
502
499
504
510
503
499
504
508
501
499
506
507
500
501
508
509
503
506
514
511
507
510
517
514
509
515
522
517
515
522
527
521
519
525
526
518
517
521
517
507
507
511
505
499
501
506
499
493
496
500
496
494
500
503
495
494
500
500
492
491
499
498
492
495
502
499
495
499
506
501
497
502
507
500
498
503
506
499
498
504
504
498
498
505
504
498
500
508
505
500
504
511
506
503
509
514
507
504
511
515
508
507
513
513
506
508
515
513
506
508
516
512
506
509
515
509
505
509
510
503
507
524
539
544
551
552
531
497
478
484
490
492
499
507
503
498
503
509
505
502
509
514
508
506
513
516
510
510
517
517
511
514
523
522
516
519
527
523
519
524
530
525
521
528
534
529
527
534
536
528
525
529
526
516
515
519
514
506
507
512
506
501
505
511
506
502
507
510
505
503
509
510
504
503
511
511
504
506
513
509
502
505
512
507
501
504
509
503
500
507
511
505
502
508
509
502
502
510
510
503
504
512
509
503
506
512
507
502
506
512
507
505
511
515
511
511
518
518
511
510
516
514
506
507
514
510
505
508
516
510
505
508
512
502
497
506
518
520
531
548
553
536
516
497
480
472
482
497
500
498
501
507
504
501
506
511
505
502
508
512
505
505
513
515
509
510
519
517
512
515
523
520
517
522
530
525
523
529
535
529
526
532
534
526
524
530
528
520
518
523
518
509
509
515
510
503
505
509
503
498
501
505
500
497
503
506
500
499
506
505
499
501
509
508
502
503
510
505
499
503
510
504
501
507
510
504
502
507
507
500
498
505
505
499
499
506
504
499
502
508
504
500
505
511
505
501
507
511
503
500
507
510
504
503
510
509
502
503
511
508
500
504
518
523
530
546
558
545
521
500
486
478
482
498
508
506
507
516
516
509
511
519
516
511
514
520
516
513
517
523
518
516
523
528
523
523
530
532
525
527
535
535
530
532
541
539
533
536
542
536
530
533
535
525
520
523
524
514
509
513
512
504
503
510
508
502
503
509
506
501
504
511
507
503
508
513
508
505
510
513
505
503
510
511
504
504
511
509
502
502
509
506
499
503
508
503
500
505
510
503
500
505
509
502
502
509
510
504
505
514
512
505
506
513
509
504
507
512
506
500
504
509
503
500
506
508
501
497
501
504
506
517
537
547
546
537
521
490
471
477
493
495
495
501
506
501
498
504
507
501
500
507
506
500
501
510
508
503
505
512
508
503
509
516
511
508
514
519
514
512
520
522
516
516
524
524
518
518
525
522
514
515
521
516
509
511
514
507
502
506
509
501
499
505
507
500
499
505
504
497
498
504
501
495
498
505
500
495
498
503
497
494
500
503
496
495
501
502
495
496
503
501
494
495
502
500
495
498
505
502
497
501
506
499
496
502
507
500
498
506
508
501
499
504
503
497
499
505
499
492
494
500
495
491
496
501
495
491
495
499
498
507
527
541
542
536
522
493
468
470
486
492
492
497
503
500
497
502
508
502
500
507
510
503
502
510
511
505
506
514
513
506
507
516
514
510
513
520
518
516
522
528
523
523
531
535
527
525
531
531
522
520
525
520
512
513
518
511
505
507
511
505
501
505
510
504
501
507
509
503
502
508
509
502
503
510
508
502
504
510
507
501
503
509
505
500
504
509
503
500
505
508
501
499
506
506
500
501
509
507
502
506
514
511
507
511
518
514
512
517
520
513
510
516
518
510
508
515
514
507
507
515
513
506
508
514
507
499
506
519
523
531
545
553
535
511
491
477
469
474
489
495
491
493
501
499
493
496
502
499
496
501
507
503
501
507
511
505
503
511
513
507
507
516
516
510
513
522
520
515
519
526
522
518
522
527
521
517
521
521
512
506
509
508
498
495
501
499
491
491
497
494
488
491
496
490
486
491
496
491
487
492
494
488
487
493
494
488
488
495
494
487
488
495
492
487
490
495
489
485
489
494
488
485
491
494
487
485
491
492
487
489
496
493
486
489
496
492
486
490
495
490
485
488
493
486
483
489
491
482
480
491
500
505
519
535
534
514
491
473
458
456
469
484
485
484
492
497
492
490
496
500
494
494
502
503
498
501
509
508
503
507
515
511
507
513
520
516
513
518
523
518
517
525
528
521
521
528
528
521
521
526
522
513
514
519
514
508
510
515
508
502
507
511
504
502
508
511
504
503
510
510
503
504
511
509
504
507
515
510
507
511
518
512
508
514
518
510
508
515
516
509
508
515
514
507
509
517
515
509
511
519
516
511
514
518
510
507
513
516
509
507
514
515
507
506
514
514
508
509
515
508
502
511
529
537
546
558
558
532
501
485
486
488
495
506
508
501
501
509
508
501
503
510
508
501
503
510
506
503
507
512
507
505
512
517
511
511
519
522
515
517
526
527
521
525
533
529
524
528
534
528
523
525
528
520
514
518
518
509
505
510
509
500
499
507
504
497
499
506
503
498
502
507
502
498
503
509
502
500
506
508
500
499
506
508
502
503
510
508
502
504
510
506
500
505
511
506
502
506
509
502
499
506
510
505
506
514
515
509
510
518
514
507
508
515
511
505
507
512
506
503
508
513
506
503
508
510
501
498
507
516
521
536
555
558
543
522
501
482
479
491
504
503
501
507
512
507
505
513
515
507
507
515
516
509
511
519
518
512
515
524
521
517
522
529
523
521
528
532
525
524
531
535
530
531
539
538
530
532
536
531
524
525
529
522
516
519
522
514
510
514
517
510
507
514
516
508
509
518
517
509
509
516
513
507
510
517
512
506
510
515
509
507
513
517
510
508
515
514
506
507
514
512
504
506
512
509
503
507
513
509
505
510
516
511
508
514
518
513
512
519
518
511
511
518
517
509
510
517
512
506
508
515
510
506
511
514
505
502
516
529
536
547
561
554
527
501
489
487
488
498
510
508
504
507
515
510
505
510
516
510
507
514
517
509
508
516
517
511
514
523
522
516
519
527
523
519
523
529
524
522
528
532
526
523
529
530
523
522
528
525
516
516
521
516
508
509
514
507
501
504
508
502
498
503
507
500
498
505
506
499
500
507
507
500
501
508
506
499
501
507
502
497
502
508
503
500
506
509
503
501
508
510
502
501
507
506
498
500
507
503
498
501
509
504
500
506
512
505
499
504
508
503
500
505
505
498
498
505
503
497
498
504
500
494
495
501
501
507
523
541
543
539
530
508
477
466
475
485
486
493
504
505
499
502
510
507
503
507
513
507
504
509
515
510
507
513
516
510
509
517
518
511
512
521
521
516
518
526
522
517
522
528
523
520
524
526
519
515
520
521
510
506
511
510
502
502
507
505
498
500
507
503
499
503
509
504
502
507
512
506
504
511
513
507
507
516
516
508
507
514
512
506
509
516
512
507
511
516
510
506
512
517
511
509
516
519
513
514
522
522
514
514
520
516
509
511
516
511
506
509
514
508
505
510
514
507
503
508
513
516
527
548
558
554
543
527
498
481
487
503
506
506
513
519
514
510
517
522
516
514
521
523
516
516
524
523
517
519
525
522
516
520
527
524
520
524
531
527
524
531
535
528
527
534
535
528
527
533
530
522
522
526
520
511
512
517
510
505
509
514
507
503
508
512
505
504
511
512
505
504
511
511
505
507
515
513
508
512
518
512
508
512
517
510
506
512
514
507
505
510
511
503
503
510
509
503
505
511
506
500
504
511
506
503
507
511
504
501
509
512
505
503
509
510
503
505
512
509
502
504
511
506
498
501
513
518
526
544
557
547
526
505
486
477
485
501
506
499
500
508
506
500
503
510
506
502
506
513
507
503
509
515
509
508
516
518
511
511
518
519
513
514
521
519
513
517
525
521
516
521
528
521
516
520
523
515
511
515
514
505
503
508
506
498
498
504
501
494
498
505
499
495
499
505
498
495
501
505
500
498
505
506
499
498
504
503
495
496
503
500
495
497
504
500
495
499
505
499
497
502
505
498
496
503
503
495
496
504
505
501
502
509
507
503
506
512
506
502
506
511
504
499
504
507
499
498
504
505
498
498
505
501
493
495
510
517
525
542
556
547
524
501
486
478
483
499
506
501
500
508
509
503
504
512
511
505
507
515
512
507
512
518
514
511
517
522
516
513
519
522
515
515
522
525
520
522
531
530
524
526
534
530
525
527
530
522
515
518
521
513
508
513
514
505
503
509
508
500
501
508
506
499
501
506
501
496
502
508
501
496
502
506
500
498
505
508
502
501
508
508
501
502
509
506
499
502
508
503
498
503
508
502
500
506
510
504
503
510
511
503
502
511
511
504
505
514
513
508
511
518
512
506
510
514
507
503
508
512
505
503
509
512
506
505
510
507
501
508
525
534
540
551
551
526
493
478
482
483
488
499
504
499
499
507
509
504
504
512
512
507
510
519
518
512
516
523
520
517
522
528
522
520
526
530
525
525
532
533
528
530
539
538
533
536
543
540
535
536
540
533
527
528
530
521
517
522
523
515
512
518
519
512
511
520
518
511
513
519
514
509
513
518
511
507
511
515
507
504
510
514
508
506
514
514
507
509
515
513
507
509
516
511
505
509
515
509
505
509
514
508
505
512
515
508
508
514
513
505
506
515
512
505
507
513
508
503
507
513
507
503
509
513
505
503
516
528
532
543
556
547
522
496
485
479
478
488
502
502
500
504
510
505
503
509
514
508
508
515
517
511
511
519
519
513
515
522
519
513
517
524
520
516
521
528
524
523
528
532
526
526
532
533
525
523
529
525
514
511
516
510
502
503
508
502
497
500
505
499
496
501
502
495
494
502
503
496
497
506
503
497
499
506
502
497
501
507
502
498
504
508
502
499
505
508
501
499
506
506
499
498
506
504
498
500
508
507
504
507
513
507
503
509
513
506
503
510
512
505
503
511
513
506
506
514
511
502
507
521
528
536
552
565
553
529
507
493
485
489
504
512
508
508
516
517
511
513
522
520
515
517
523
518
513
517
525
520
517
523
527
521
520
527
529
524
524
532
534
529
530
538
537
532
534
540
536
531
533
537
528
523
526
528
519
515
520
521
513
512
517
515
507
507
514
511
505
507
514
510
505
510
516
510
506
511
515
507
504
512
515
507
507
513
512
505
507
513
509
504
508
514
508
501
505
512
506
503
510
514
507
507
516
519
510
509
515
513
505
506
512
507
501
505
510
504
499
502
507
501
497
501
502
495
500
518
533
539
548
552
531
494
474
478
483
488
498
506
502
498
504
509
503
500
506
510
503
502
510
512
506
508
515
514
508
511
518
515
511
515
521
517
513
519
525
519
517
525
528
522
520
528
528
521
521
527
522
514
513
517
512
506
508
512
506
502
506
510
503
500
505
507
500
499
506
506
499
499
505
503
498
501
507
502
497
502
508
504
502
506
509
503
500
506
507
501
501
508
508
501
501
508
505
498
501
507
502
496
501
506
500
498
504
510
504
502
510
514
507
506
512
510
502
503
510
507
500
502
507
502
497
501
507
501
498
502
503
496
502
520
534
540
549
552
531
496
478
484
488
490
498
506
502
499
505
511
506
504
510
514
508
507
517
518
511
511
518
518
512
514
522
520
514
518
525
522
518
524
530
524
522
529
534
527
525
531
532
524
523
528
524
515
514
519
512
506
508
513
506
500
505
510
504
500
505
507
501
501
509
509
502
502
509
507
501
503
510
506
501
504
510
505
501
507
511
504
502
508
511
505
504
512
513
507
508
515
514
507
508
517
511
507
511
518
512
508
513
517
511
509
515
518
512
511
518
517
508
508
514
511
504
506
511
507
503
507
513
507
503
509
513
504
499
508
517
521
533
551
555
540
520
499
480
472
481
495
497
496
501
507
504
502
510
515
508
508
517
519
512
512
521
522
517
519
526
523
518
522
530
526
523
529
535
530
528
537
542
536
535
544
545
538
537
543
541
533
532
535
530
523
524
528
521
515
518
521
515
512
518
520
512
511
517
518
511
512
520
518
510
511
518
515
509
513
520
515
510
515
521
515
512
518
521
514
513
520
519
512
512
518
515
509
511
518
514
509
512
518
514
509
515
520
514
511
516
517
510
509
516
515
507
507
514
511
504
507
514
509
503
507
512
505
503
517
532
538
548
558
550
523
496
486
486
486
495
508
508
503
507
515
513
508
512
518
512
509
516
520
513
511
518
521
514
514
521
521
513
514
522
520
515
519
526
522
518
522
528
523
520
527
531
525
522
527
526
516
514
519
516
506
505
510
506
499
501
507
502
497
500
504
498
494
500
505
498
497
504
506
498
498
506
505
499
501
509
506
501
504
511
506
501
506
510
503
501
508
510
503
502
509
510
503
503
510
509
502
504
512
510
504
507
514
509
504
508
513
506
504
511
515
507
505
512
512
505
505
512
511
504
505
509
502
499
510
527
535
544
555
552
523
491
479
482
485
494
504
507
500
501
509
508
502
505
512
510
505
509
515
510
508
514
520
514
513
520
522
516
515
523
524
518
520
527
526
521
523
531
529
524
527
532
525
518
521
522
513
507
511
510
502
500
507
506
498
498
504
501
496
499
505
500
495
498
504
497
494
500
505
500
498
505
507
500
499
507
507
501
502
509
506
500
502
507
502
497
501
506
500
496
501
505
498
497
503
504
497
496
502
501
495
498
507
504
499
503
509
504
500
505
511
504
499
504
508
501
499
506
506
497
496
504
504
497
499
507
504
496
496
503
504
510
527
545
548
542
529
504
475
470
484
494
493
496
506
505
499
501
509
505
501
504
510
505
503
509
514
508
505
512
516
509
508
515
516
509
510
518
517
511
514
522
519
514
518
526
521
518
523
527
519
515
520
519
510
507
513
511
503
502
508
505
499
500
506
502
497
499
505
500
495
500
505
499
497
503
506
499
499
507
507
499
500
507
505
500
503
510
506
501
505
510
504
500
505
509
502
499
506
508
502
501
508
508
501
502
509
506
500
503
509
505
501
506
511
505
502
509
514
507
503
509
511
505
504
509
507
499
500
507
504
498
500
507
502
497
498
503
503
510
528
545
548
546
537
513
483
477
490
497
497
503
511
509
504
507
514
510
506
511
517
511
509
516
521
515
513
519
521
516
516
523
522
516
520
528
526
521
525
532
528
525
531
536
530
527
533
536
527
523
527
526
517
515
520
516
507
508
514
509
502
504
510
505
501
505
510
504
501
507
510
502
501
508
508
501
501
508
507
500
501
508
504
500
503
509
504
500
505
509
503
500
508
511
505
504
510
510
503
503
511
509
505
507
514
511
507
511
518
513
508
513
517
511
509
514
515
507
505
511
511
503
503
510
507
501
502
506
501
502
517
534
540
544
548
534
503
479
479
486
488
495
507
509
503
506
515
513
507
510
519
515
510
515
522
517
514
520
525
521
519
527
528
522
522
530
530
524
527
536
534
530
533
540
536
532
536
541
534
528
531
533
523
520
524
524
513
511
517
515
507
508
514
511
505
508
515
509
505
508
514
507
504
511
515
508
507
514
515
508
507
515
513
507
508
515
511
505
509
516
511
507
511
516
510
506
510
514
507
507
514
514
507
508
517
516
508
508
515
513
508
510
515
508
503
508
514
508
506
513
515
508
504
509
512
515
527
547
556
554
544
527
496
476
480
494
497
499
506
511
504
502
509
512
506
505
512
514
508
509
516
514
508
511
519
517
512
517
523
518
516
522
527
521
520
527
529
523
523
532
533
527
528
533
528
519
519
522
515
507
509
513
506
500
505
509
502
500
506
508
503
502
509
509
503
504
511
508
502
505
512
508
504
507
513
506
503
508
512
505
503
509
510
503
503
510
510
503
503
510
508
502
505
512
507
502
505
510
507
505
510
515
508
507
514
514
507
506
514
513
505
507
514
511
505
508
515
510
506
510
515
506
504
516
529
535
546
559
555
529
501
488
485
487
499
510
509
503
505
512
507
504
509
515
510
508
515
518
512
511
519
520
513
514
523
522
517
518
525
522
517
522
529
525
522
528
533
528
526
532
535
527
524
529
527
518
516
520
517
509
510
515
509
503
506
511
506
502
507
510
503
500
506
509
502
501
509
510
503
504
511
510
503
505
514
510
505
509
516
511
506
510
516
511
509
516
517
511
510
516
516
508
509
517
514
507
509
515
510
504
507
513
506
503
509
513
506
503
511
515
507
505
512
512
505
507
514
510
502
504
510
506
502
506
512
507
503
507
509
505
510
528
542
547
553
554
534
501
485
492
498
499
505
513
510
507
511
516
510
506
513
517
510
508
516
517
509
509
516
516
508
510
517
513
507
511
520
516
513
519
525
521
518
525
530
524
522
529
530
522
520
525
522
513
512
517
510
502
503
508
502
497
501
504
497
494
499
502
495
493
501
502
495
495
502
500
494
496
504
500
494
497
504
501
498
503
508
502
499
504
506
499
498
505
506
498
499
506
504
498
501
509
505
500
502
507
502
498
503
508
503
500
506
509
503
501
508
510
505
505
513
510
502
505
512
507
501
502
507
502
498
503
508
501
498
504
505
496
495
508
519
524
538
554
550
527
503
487
479
482
496
509
506
502
509
514
508
506
511
514
508
508
516
516
509
510
519
516
509
512
520
517
512
516
522
516
513
520
524
518
517
524
527
520
520
528
528
521
520
526
522
513
513
518
512
506
508
512
506
502
506
509
502
500
506
507
501
499
506
505
498
499
507
505
499
501
507
503
498
501
507
501
498
504
508
501
500
507
509
502
501
508
507
500
502
510
506
500
502
508
502
499
503
508
503
499
505
509
502
502
510
512
504
505
514
514
507
508
514
510
505
509
515
510
504
508
512
505
502
507
509
501
499
504
504
502
512
531
543
546
546
538
508
480
476
484
486
489
499
506
500
498
504
507
500
500
508
509
503
504
512
512
506
510
518
515
509
514
521
517
515
521
526
521
519
527
530
524
523
530
531
525
525
530
528
520
520
524
517
510
511
515
507
501
504
508
500
499
505
508
502
501
508
508
502
502
509
507
502
505
511
507
503
507
514
508
505
510
513
506
503
508
510
502
501
509
509
501
502
509
507
500
502
509
504
500
505
511
506
503
509
515
509
506
510
511
504
505
512
510
502
502
508
505
499
500
506
502
497
500
503
498
502
520
537
542
547
547
528
494
477
481
487
489
496
507
505
501
505
512
507
504
509
516
511
508
513
517
512
511
518
519
512
513
520
520
514
517
525
523
519
523
530
525
521
526
532
526
523
529
531
523
520
524
523
515
513
518
515
506
507
513
507
502
505
511
506
503
507
512
505
503
508
510
503
502
509
510
504
504
511
510
504
506
512
508
503
507
514
508
503
507
512
505
501
507
509
503
502
509
509
503
504
512
511
505
508
515
511
506
510
515
509
505
509
513
507
505
511
513
506
505
513
513
504
502
510
515
520
534
554
558
548
531
509
484
480
494
507
506
505
511
514
508
508
516
516
509
509
517
515
508
510
518
514
510
515
521
515
511
518
523
517
517
525
528
522
523
532
533
528
529
538
535
530
531
536
529
523
525
528
519
513
517
518
509
507
513
513
506
506
513
510
503
503
511
509
502
504
510
505
501
506
512
507
503
509
512
504
501
507
508
500
500
507
507
501
501
507
503
498
501
507
501
497
502
507
502
499
505
509
504
503
509
508
501
501
508
507
499
501
508
506
501
504
510
504
500
504
507
499
497
510
523
528
539
554
548
522
494
481
478
481
492
503
501
497
502
508
502
497
502
507
502
501
508
511
505
504
512
512
506
508
516
513
507
509
517
514
510
515
521
517
514
520
525
519
516
522
525
519
517
523
520
511
509
514
509
500
501
506
502
497
499
504
498
494
498
502
495
494
501
504
497
495
504
505
498
498
504
503
497
499
505
500
495
499
504
498
495
500
504
498
495
501
503
497
497
504
505
500
501
508
506
500
503
510
507
503
506
514
510
507
512
514
507
506
512
514
506
505
511
511
505
507
514
511
505
507
510
504
501
513
528
534
543
555
549
520
491
482
486
489
496
508
509
503
505
513
510
505
508
516
512
509
515
521
516
513
519
522
515
514
521
522
516
517
525
524
517
520
528
525
520
524
531
526
522
526
532
526
522
527
528
518
513
518
517
507
505
512
509
502
503
509
507
501
504
510
504
500
505
509
503
501
507
511
505
504
511
510
503
503
511
509
502
505
513
508
502
505
511
505
500
504
509
503
502
508
511
503
503
510
510
504
505
512
510
505
508
515
509
503
507
513
506
502
507
511
503
500
506
508
502
501
508
508
500
500
512
520
526
541
555
548
525
502
485
473
474
488
499
497
496
502
506
501
501
508
509
503
505
512
511
505
509
518
515
511
515
521
517
514
520
524
519
516
524
528
522
523
532
532
527
530
538
535
530
531
535
527
519
520
524
515
509
513
515
508
505
511
510
503
504
511
511
504
506
513
510
504
507
514
509
505
509
514
508
504
510
513
506
505
511
512
505
504
511
510
503
503
509
506
500
503
509
504
500
505
510
503
502
510
515
508
505
512
512
506
506
514
512
507
508
515
511
505
507
513
507
501
504
511
513
522
541
556
554
544
531
504
479
478
490
497
497
503
512
508
503
507
514
509
506
510
516
510
509
516
518
512
511
519
521
515
516
523
522
516
519
527
524
519
525
533
528
526
531
535
530
528
533
533
524
520
523
519
509
507
512
507
499
501
507
502
498
502
507
501
497
503
507
502
501
508
509
502
500
507
507
501
502
510
507
501
503
510
505
500
503
508
502
497
502
506
500
499
506
509
504
504
511
512
507
509
515
511
505
507
514
509
504
508
513
507
504
509
513
504
502
507
506
498
498
510
520
526
541
556
550
527
503
487
477
481
495
506
503
500
508
513
507
506
513
514
507
507
516
515
509
512
521
519
514
517
524
520
517
524
529
524
522
529
532
527
526
534
536
530
531
539
538
531
532
536
529
521
522
526
518
510
511
514
507
505
510
512
503
501
508
509
502
503
511
509
502
505
512
508
502
504
509
503
499
503
508
501
498
503
505
498
497
504
505
498
499
506
504
498
501
507
503
498
502
508
502
498
504
509
503
500
508
512
505
502
509
508
501
502
509
505
498
500
505
500
496
500
505
500
495
499
501
496
500
517
531
538
546
548
528
494
475
480
485
486
494
502
497
492
497
504
498
495
500
503
495
493
500
502
496
497
506
506
501
503
510
508
503
507
515
512
509
515
522
516
513
519
523
517
516
523
525
517
515
520
517
508
508
514
508
501
503
508
502
497
501
506
500
497
501
503
497
497
504
505
498
497
504
503
496
498
505
501
495
498
504
499
495
499
504
497
494
500
504
498
496
503
505
498
498
507
506
500
502
510
506
501
504
510
505
500
505
509
501
497
504
507
501
500
509
511
506
507
514
512
505
508
515
510
505
507
513
508
504
509
511
504
501
508
509
502
505
521
532
539
551
560
544
513
489
484
483
486
496
506
502
501
509
514
508
505
512
515
509
509
517
518
511
512
520
517
511
514
521
519
515
520
528
522
520
527
532
527
526
534
535
529
530
538
538
530
528
534
530
521
521
524
517
510
513
517
511
506
510
513
505
504
509
509
502
502
509
508
502
504
512
508
503
507
514
510
506
511
517
510
506
511
514
507
505
512
514
506
506
513
512
505
507
514
511
505
510
516
511
506
509
514
508
505
511
513
506
507
515
516
509
508
515
512
504
504
510
505
500
504
510
505
501
506
510
503
498
506
516
520
530
548
556
544
527
509
488
478
485
501
505
503
508
515
510
506
511
516
510
508
515
518
512
512
520
522
515
517
526
526
522
525
532
529
526
530
536
532
530
536
540
534
532
538
541
535
534
539
537
528
526
530
526
517
517
522
518
512
515
520
513
508
513
516
508
506
512
513
506
505
511
511
503
504
511
508
502
504
510
505
500
504
510
504
501
507
512
506
503
510
513
507
507
514
513
505
506
514
512
505
509
517
514
509
511
515
509
505
511
514
506
504
511
514
508
508
514
513
506
507
512
506
501
511
527
535
543
553
551
526
496
484
486
486
493
505
509
504
505
514
513
506
509
517
515
509
512
519
515
511
516
522
516
514
521
524
518
516
524
523
517
518
526
526
522
525
533
530
523
526
532
527
521
523
525
516
512
517
517
508
505
510
509
502
501
508
505
499
501
507
503
496
499
504
499
495
501
506
500
497
502
504
497
497
505
505
498
499
506
505
499
500
507
503
498
501
507
502
498
503
507
501
500
506
509
502
502
509
510
503
503
512
512
507
508
515
510
506
510
515
507
502
506
509
502
500
506
508
500
499
504
500
494
503
520
531
538
548
547
523
491
476
482
485
491
502
508
502
501
509
512
506
506
516
516
510
512
520
518
512
514
521
516
512
516
521
516
514
521
525
520
520
528
531
524
524
533
532
525
527
534
531
524
524
528
521
514
517
520
511
505
511
513
506
505
512
513
506
505
512
510
504
505
511
508
503
506
511
506
501
505
509
501
498
505
508
501
499
506
507
501
502
509
507
501
502
509
505
500
503
510
506
503
507
511
506
504
511
513
506
506
513
513
505
505
512
509
504
507
515
512
508
512
517
510
506
511
516
508
505
509
511
503
503
509
509
502
502
508
504
494
496
508
513
521
540
557
548
527
506
487
476
481
497
504
499
499
506
507
502
503
510
508
503
506
512
508
504
509
515
510
507
513
517
511
509
516
519
512
512
520
520
515
517
525
524
518
522
529
524
519
521
524
516
510
515
516
506
502
507
507
499
498
504
503
495
496
504
501
494
496
503
498
493
497
503
498
497
502
506
500
499
506
506
498
498
505
503
497
497
504
501
496
500
506
502
499
505
510
503
499
505
507
501
500
508
509
501
500
507
506
500
502
509
507
503
506
513
509
505
509
513
505
503
509
512
504
502
508
509
503
504
511
510
504
506
511
505
498
506
521
527
536
549
553
531
502
484
479
476
484
499
504
499
501
510
508
503
506
513
509
505
509
515
511
509
515
519
511
510
518
521
515
515
524
524
518
519
528
527
522
526
534
530
525
529
534
527
521
525
526
516
511
515
