282
282
281
282
281
281
283
283
285
285
288
286
285
285
286
284
286
285
288
286
286
285
284
285
283
284
286
289
289
289
290
290
291
292
294
297
296
294
295
299
298
297
298
298
297
296
296
296
296
296
294
293
293
295
289
297
330
288
284
301
299
301
302
302
301
301
302
300
301
302
303
303
303
304
302
302
301
300
297
299
301
301
301
302
303
300
301
300
300
300
302
302
302
301
300
300
300
301
301
300
300
298
299
299
298
297
298
300
298
297
295
296
298
295
293
293
293
294
294
295
292
291
291
291
291
289
286
287
288
287
275
310
288
262
284
289
290
293
293
294
299
299
299
301
302
304
306
306
307
305
302
300
300
301
300
298
297
297
296
296
296
300
300
301
301
303
304
304
304
304
300
297
298
296
295
294
294
294
291
294
295
297
297
298
298
297
298
296
296
298
296
295
296
300
297
295
297
297
296
284
310
317
275
288
299
299
299
298
298
300
299
300
299
302
302
301
301
302
304
301
299
297
295
294
292
293
294
293
293
295
295
295
295
296
297
297
296
297
296
295
293
295
296
298
295
297
296
298
298
300
301
299
302
301
304
303
302
301
299
298
297
298
297
295
293
292
296
297
291
291
293
293
292
280
324
300
273
296
299
299
297
297
297
296
294
296
295
297
298
297
299
299
298
296
296
293
292
290
291
290
289
289
291
293
292
292
293
294
295
296
295
295
295
294
295
297
295
294
296
294
293
292
292
293
291
291
292
294
292
293
292
292
291
290
293
295
297
295
295
298
299
297
293
294
294
293
294
282
315
313
274
291
299
299
298
301
301
300
303
306
306
304
304
304
305
304
304
303
300
295
292
292
291
291
291
291
291
290
287
286
286
287
284
287
286
286
284
286
288
286
286
286
288
288
289
289
291
292
293
293
295
295
295
295
297
298
298
296
297
296
295
297
299
299
297
297
298
297
292
287
323
291
273
295
297
297
298
298
301
299
296
294
293
294
294
294
296
297
296
294
290
289
287
288
291
291
292
294
293
293
293
295
296
295
296
293
293
292
291
293
292
296
296
295
296
295
295
297
297
298
300
299
298
300
301
300
300
303
301
299
298
297
298
299
302
301
299
299
296
297
282
317
309
271
290
297
299
303
301
300
301
301
302
300
298
298
297
296
297
296
293
292
292
289
288
288
289
290
290
289
290
289
289
291
289
288
290
288
288
289
290
289
290
292
294
297
296
294
295
295
294
293
294
292
294
294
297
298
299
301
301
300
299
297
298
297
297
297
300
300
297
295
296
298
298
284
322
312
276
294
299
300
300
298
299
299
299
297
298
301
299
300
301
301
299
298
296
294
293
289
289
290
290
291
294
295
294
296
296
295
294
292
293
291
291
291
289
290
289
289
291
292
292
291
292
291
291
290
291
292
292
292
292
292
292
291
294
294
294
292
291
290
290
281
317
292
270
291
296
296
297
296
298
300
302
300
300
301
303
303
303
304
304
300
297
294
294
294
292
295
295
295
294
295
298
297
297
295
295
296
297
295
295
297
299
298
298
298
298
299
299
298
296
296
295
295
292
292
292
291
288
288
289
289
289
289
289
290
292
293
294
294
294
293
293
285
291
324
286
280
296
295
294
293
293
294
295
296
294
294
294
295
295
295
294
296
296
292
288
287
286
285
285
285
284
284
284
284
288
289
290
292
293
295
295
295
295
294
295
297
295
295
293
295
294
293
292
293
296
297
294
295
295
295
293
293
293
293
294
294
297
297
295
296
298
298
299
302
302
299
298
297
296
295
285
329
300
278
297
296
299
298
298
299
299
298
296
294
297
297
296
296
296
293
288
282
283
281
281
282
281
281
280
278
277
278
279
280
282
281
281
281
282
284
286
285
286
288
287
289
289
288
290
289
290
290
290
288
288
292
293
292
294
294
293
295
296
297
297
299
301
302
304
305
303
304
304
300
301
292
313
322
282
292
302
300
302
304
305
304
303
305
307
307
306
308
309
308
306
305
304
301
300
301
300
298
299
299
303
302
303
301
302
299
298
299
299
298
297
298
298
298
298
297
298
298
297
296
297
295
295
294
295
297
295
298
297
289
319
297
276
297
302
304
304
305
301
303
303
303
300
301
304
307
309
310
308
302
295
293
290
290
290
290
291
291
293
293
294
293
293
294
293
295
294
294
292
292
290
289
290
290
288
289
291
291
292
293
295
295
293
284
312
303
270
286
296
296
298
297
296
297
296
297
297
298
300
301
304
306
305
304
303
302
302
302
302
302
302
302
302
301
299
300
300
302
300
296
297
297
298
297
298
301
301
301
301
301
301
298
295
294
293
293
292
293
293
289
290
291
286
293
312
278
276
292
291
291
291
290
289
289
291
291
291
295
293
295
294
294
294
291
290
287
288
288
288
291
290
289
291
291
292
293
294
296
296
298
299
299
298
299
299
299
301
303
300
301
303
300
300
297
299
300
299
299
300
299
299
298
299
300
299
298
298
298
298
299
299
301
302
301
297
294
292
293
292
280
305
305
272
286
293
289
294
296
293
294
296
299
299
299
300
304
304
305
305
303
300
300
299
299
298
294
293
290
292
290
289
290
289
290
290
290
293
291
292
293
293
294
293
292
290
290
289
290
289
288
287
287
288
287
285
287
290
288
288
292
293
291
291
293
296
296
295
294
296
295
296
294
293
291
292
292
292
289
326
292
277
296
294
294
298
298
298
299
300
300
298
299
300
299
298
299
298
296
295
294
292
292
293
293
296
295
294
292
293
296
295
294
295
296
295
295
298
299
294
294
294
294
294
293
294
297
296
297
296
295
295
293
293
294
294
294
294
295
296
295
295
297
298
296
298
297
296
296
292
292
291
289
290
280
313
299
267
285
290
288
289
291
289
290
293
296
297
298
302
304
308
306
304
303
299
296
295
293
293
292
292
293
292
291
291
294
296
297
301
302
304
302
300
298
299
298
295
296
298
296
293
292
292
291
288
288
288
287
288
287
290
289
288
291
290
291
289
289
288
287
278
296
309
270
278
290
292
291
292
292
295
294
294
295
296
296
299
299
302
301
297
295
292
292
290
290
290
290
290
290
291
292
291
292
291
289
290
290
293
294
296
298
297
297
298
297
298
299
301
301
303
304
303
302
303
302
300
298
295
297
296
295
293
292
291
287
289
290
288
286
285
287
290
289
285
322
288
275
292
294
295
297
298
298
298
298
299
303
303
303
304
305
305
306
307
306
303
301
299
299
300
298
298
294
294
292
292
291
290
288
288
285
286
284
285
285
284
284
282
284
283
281
281
281
283
283
281
281
281
281
279
278
278
276
280
285
286
280
280
279
279
279
279
279
280
277
278
282
280
270
289
307
268
275
287
290
291
291
290
290
291
292
292
294
293
292
293
294
292
291
290
289
288
289
290
292
293
294
294
292
294
295
295
296
298
300
299
299
301
302
299
298
297
294
294
294
295
297
295
294
293
294
293
293
296
296
296
296
297
299
300
299
296
296
296
298
299
288
316
308
272
291
299
300
301
304
303
301
303
305
307
308
307
309
311
309
308
305
303
303
303
306
306
305
302
302
301
300
298
299
299
299
297
296
295
294
293
293
292
290
291
291
293
293
294
293
294
294
291
293
295
292
291
291
292
289
288
287
287
286
286
289
288
290
288
288
280
315
288
264
287
289
292
294
296
296
295
294
295
295
293
294
297
300
299
299
296
294
291
293
293
294
293
291
292
293
295
292
293
296
295
294
296
296
294
294
294
294
292
290
291
291
288
288
286
288
290
290
289
289
290
288
287
288
288
287
285
289
291
291
294
295
296
296
294
294
295
291
290
281
298
318
275
282
294
293
294
297
297
295
295
295
297
299
297
298
299
299
297
298
297
293
292
293
293
292
292
294
294
296
296
299
298
296
294
293
292
292
294
295
294
295
297
296
296
294
295
295
298
296
296
297
300
301
301
299
300
299
297
296
293
293
290
290
289
293
293
289
291
293
294
280
300
317
272
281
294
293
293
292
294
297
299
297
299
301
301
302
305
307
305
302
301
301
296
294
294
296
295
292
293
296
294
295
294
297
298
297
296
295
296
295
298
301
299
297
295
294
292
292
293
292
290
291
291
293
292
291
293
294
294
292
290
287
287
285
286
274
307
291
259
282
290
289
289
291
294
296
295
297
299
299
299
302
304
303
301
296
295
293
291
289
288
287
287
288
290
292
293
291
292
294
297
296
298
298
295
296
299
298
296
296
297
299
297
299
299
299
299
300
300
303
299
299
301
299
289
324
302
272
292
295
293
294
291
291
293
290
289
289
289
287
280
275
274
272
269
259
248
244
243
244
246
247
249
251
251
252
252
256
257
261
263
265
266
270
272
274
275
277
276
276
277
285
290
292
294
296
299
302
302
306
306
306
307
309
311
310
311
312
311
310
307
306
305
292
313
325
285
297
301
298
301
302
304
304
305
304
304
304
304
305
306
309
309
307
305
304
303
302
300
300
303
301
300
298
299
298
297
298
297
297
295
294
293
290
289
289
289
290
290
288
289
287
288
288
289
291
288
287
287
287
288
287
288
285
288
288
289
291
291
289
289
289
291
293
292
295
330
288
282
302
303
303
305
307
306
305
305
308
310
311
308
308
307
307
306
305
304
307
308
309
310
307
306
306
306
305
306
309
307
306
306
308
306
306
308
312
312
311
312
313
314
309
308
307
307
305
307
309
309
307
307
307
304
303
302
299
296
295
293
291
288
286
314
282
271
288
291
293
294
294
295
295
295
296
296
300
300
302
300
298
295
288
284
283
284
284
282
284
284
285
284
285
286
288
287
287
290
291
289
288
288
289
292
292
291
290
292
293
296
297
298
297
297
294
294
295
296
295
293
292
291
292
289
290
283
302
317
276
283
296
298
298
299
301
299
299
299
302
303
306
308
310
311
310
305
301
301
300
297
299
295
290
289
289
289
288
289
289
290
290
290
290
291
288
285
283
282
281
280
282
281
281
286
288
290
293
295
299
299
296
292
287
285
279
276
276
275
274
278
279
281
283
284
291
294
293
293
293
294
293
279
304
313
270
282
292
293
292
294
292
293
293
294
296
295
295
294
297
298
299
299
301
304
302
304
305
305
305
303
304
305
304
306
304
304
306
303
302
304
303
302
302
304
302
301
300
301
300
298
298
298
298
297
295
295
295
296
295
296
299
297
297
299
300
301
301
303
301
298
298
298
296
289
293
320
284
279
293
293
296
294
294
294
294
293
293
293
296
295
295
294
293
290
287
286
284
283
284
284
286
288
288
288
288
290
289
285
287
288
289
289
290
290
289
292
293
293
293
293
292
292
292
292
292
294
295
294
296
295
296
294
294
294
293
281
312
300
264
283
290
291
292
292
292
294
294
293
294
296
295
297
300
302
301
299
298
302
300
299
300
302
303
304
302
299
298
295
293
296
296
294
291
289
289
287
285
284
282
277
275
278
281
283
283
281
281
282
284
286
288
288
287
287
288
285
286
288
292
294
295
296
298
296
296
296
295
296
292
289
328
289
273
293
294
297
295
297
298
300
298
296
299
299
299
299
301
300
296
295
294
293
292
290
291
290
288
288
287
288
288
289
290
290
290
292
292
292
292
294
294
297
298
300
300
302
301
299
299
299
300
297
297
294
291
288
289
290
290
290
291
291
291
292
290
293
293
289
291
292
292
293
283
306
318
277
287
297
298
298
297
298
297
297
296
299
299
301
299
298
301
303
302
302
299
297
295
292
290
288
288
290
291
290
290
291
293
291
292
291
292
292
291
291
294
294
296
298
300
298
298
297
297
297
297
295
295
294
294
294
293
296
297
299
300
300
299
299
300
299
291
298
322
284
281
297
299
300
300
300
301
301
300
302
303
303
303
302
302
302
301
298
299
300
297
297
298
298
299
300
299
301
300
300
298
298
297
296
296
299
297
293
289
288
289
288
291
293
296
295
298
298
299
297
297
297
299
298
297
298
297
296
295
293
294
293
292
294
292
289
288
289
289
283
286
320
280
275
290
290
291
290
291
290
290
290
292
294
293
292
293
295
296
294
291
289
291
291
292
292
292
291
290
291
290
289
290
293
293
292
293
294
294
293
293
292
293
294
293
288
288
290
287
285
288
289
289
288
290
291
287
289
289
289
286
287
290
290
289
286
289
290
287
288
288
287
285
272
303
307
265
282
287
288
288
288
288
290
290
293
292
292
295
295
294
294
295
290
287
285
283
281
280
278
276
275
276
277
278
279
279
282
283
282
283
281
281
280
280
280
281
283
283
285
287
288
288
287
288
285
280
279
279
278
278
279
279
280
282
282
280
276
274
277
276
274
269
304
278
258
278
277
274
267
263
264
262
263
265
264
264
265
263
263
265
265
263
258
256
257
258
259
260
263
262
263
265
261
260
263
262
263
265
264
264
268
266
269
271
273
276
277
278
280
278
282
283
284
286
291
293
294
296
298
302
305
307
301
301
306
305
294
327
322
281
297
303
303
304
305
305
308
308
308
309
312
313
313
312
316
316
314
308
305
302
303
302
303
305
306
310
312
314
311
307
309
310
308
306
308
309
308
308
309
308
305
306
304
303
304
306
308
304
302
298
298
299
296
297
294
293
290
288
288
284
282
284
283
286
283
281
282
285
286
275
297
311
268
275
286
291
294
297
300
302
304
304
306
308
306
307
310
310
307
306
304
301
300
302
304
305
307
304
307
307
308
303
304
303
305
303
300
298
296
295
296
296
297
298
300
301
297
292
290
291
291
292
291
290
291
289
286
285
284
283
280
282
284
285
286
286
285
284
285
286
277
310
295
260
281
289
291
290
290
289
286
287
284
280
277
274
273
274
271
268
267
264
264
263
262
252
248
252
262
271
273
277
282
286
287
288
290
290
286
286
287
290
288
289
292
294
293
296
295
296
294
293
293
295
295
298
296
291
288
286
276
296
302
264
278
289
285
283
284
283
281
279
281
285
289
291
291
291
291
287
282
279
278
278
280
280
280
280
280
281
285
286
286
291
293
293
296
300
300
297
294
293
296
293
292
295
297
297
295
293
290
292
292
291
292
293
293
294
288
286
286
286
288
291
295
296
298
296
295
278
308
302
261
281
286
288
285
285
287
287
290
292
295
295
297
300
307
307
304
299
297
295
294
294
295
297
296
297
298
298
296
298
298
298
298
296
298
301
304
309
313
311
310
305
302
296
290
290
288
287
285
284
285
288
291
291
291
292
290
287
284
287
288
288
288
289
286
288
289
293
295
284
298
315
273
278
293
297
297
293
292
294
296
298
297
301
305
305
304
306
301
299
298
296
298
298
299
300
299
299
297
298
297
294
294
296
297
295
290
286
282
277
276
278
279
282
285
287
292
295
295
296
296
295
295
294
291
322
285
272
293
294
294
298
298
299
300
303
311
312
313
315
315
316
314
313
310
304
304
302
298
293
293
295
294
292
294
291
289
289
287
288
289
288
287
285
288
290
291
289
288
290
292
295
298
300
304
306
301
303
299
297
297
285
315
318
279
295
304
302
302
302
299
296
297
299
299
297
298
299
299
300
301
299
296
294
292
292
290
288
284
285
284
281
279
280
278
278
275
275
274
271
270
270
272
272
269
271
272
272
274
275
280
280
283
285
289
288
286
284
284
283
284
281
282
281
279
278
279
275
273
274
274
273
273
274
276
276
277
266
304
292
256
274
279
279
282
287
287
288
291
292
292
294
297
299
301
301
301
300
301
300
300
298
302
305
304
301
302
301
298
298
297
300
300
300
299
302
302
301
302
302
301
301
301
302
303
303
305
309
310
309
307
308
307
305
305
306
303
303
301
306
304
307
306
302
300
301
301
297
296
328
293
277
294
297
297
300
302
300
301
304
302
304
303
303
306
307
307
303
300
295
294
298
296
295
293
291
291
295
294
294
293
293
289
289
289
287
286
288
289
288
289
291
292
291
292
289
288
291
293
296
297
297
296
294
295
294
287
324
294
277
297
300
302
301
302
303
304
304
304
301
303
303
303
300
302
301
297
294
293
293
290
288
287
287
291
291
292
292
291
289
289
289
288
289
293
296
296
297
297
299
300
299
301
303
302
303
303
304
304
303
303
304
304
306
303
300
296
295
295
294
281
306
318
275
287
293
293
295
296
294
294
298
302
303
301
304
305
305
306
304
302
297
296
298
295
295
296
294
296
293
292
293
291
292
290
289
291
291
292
293
291
290
291
293
296
297
294
295
294
291
286
280
274
271
271
267
268
270
271
274
272
261
295
286
256
276
279
279
280
279
278
279
280
280
281
280
282
282
285
284
283
283
278
276
280
282
284
282
285
288
290
291
288
288
289
288
289
291
290
290
291
293
294
293
294
292
291
292
293
296
294
292
292
292
291
293
291
291
291
294
297
301
304
300
298
301
298
297
293
285
319
295
271
293
299
299
302
304
305
305
305
306
308
309
310
311
311
309
308
309
308
306
306
306
307
306
305
307
305
304
304
307
306
304
303
301
302
302
301
301
300
299
293
292
289
285
284
287
288
289
289
287
288
289
291
289
291
293
293
294
293
290
287
284
284
283
284
287
288
286
288
287
289
288
272
306
306
272
287
292
295
296
297
297
297
298
299
299
299
299
300
301
303
304
302
300
304
306
310
311
312
314
313
315
310
309
307
305
306
305
304
303
302
304
303
301
303
303
303
302
302
303
304
303
304
305
304
301
302
304
303
302
300
300
300
299
299
297
298
297
297
299
298
296
294
293
292
288
291
290
293
294
281
319
293
264
282
281
281
283
285
288
290
290
292
295
295
296
296
299
300
300
299
297
298
299
300
299
299
298
296
296
296
296
297
296
298
299
297
298
297
297
298
297
299
298
295
292
292
291
290
292
294
296
298
297
298
298
297
296
297
295
292
291
293
292
292
295
294
292
288
289
290
289
283
320
298
273
290
296
298
300
300
299
300
301
300
302
302
303
300
300
299
296
293
290
288
290
289
290
292
294
295
295
297
298
297
294
295
293
295
294
293
296
298
297
298
299
300
297
296
296
298
297
295
297
299
297
296
294
294
293
292
294
290
289
321
288
278
296
295
295
295
295
296
299
301
300
301
300
302
305
303
305
300
297
293
290
290
287
286
287
288
289
289
290
291
289
289
291
293
296
293
292
292
294
294
293
293
295
294
293
292
291
292
291
293
291
287
288
291
292
290
288
290
290
288
286
284
285
285
276
286
314
273
272
287
285
285
285
286
287
286
287
289
292
293
294
295
294
294
293
291
290
289
288
291
291
289
289
291
293
291
289
291
291
290
291
291
292
292
291
291
294
293
292
290
290
289
291
289
289
290
289
290
288
286
286
286
290
292
294
292
293
292
288
286
286
289
291
293
293
293
291
292
292
288
329
298
284
304
304
305
306
307
307
305
304
303
301
300
297
297
296
295
294
294
290
289
288
290
293
290
290
291
292
293
296
299
300
301
299
298
299
298
296
299
297
297
298
300
301
300
300
301
300
299
297
295
295
295
296
294
293
293
293
295
292
294
290
290
292
290
279
306
305
267
281
292
294
296
295
296
298
299
298
298
299
298
300
304
307
305
303
301
302
305
305
305
304
304
307
309
312
312
311
311
313
312
310
310
306
303
298
297
298
300
299
299
302
308
309
311
311
310
308
305
305
306
307
305
305
305
302
303
304
303
305
303
305
305
304
291
327
305
273
290
292
292
294
295
293
294
293
294
293
293
292
291
291
293
291
287
286
285
285
282
282
280
281
280
278
279
277
275
276
278
279
275
277
280
279
279
279
280
279
277
277
278
278
280
281
283
284
286
285
284
287
288
288
290
292
290
290
292
294
294
297
298
295
295
294
295
299
288
307
326
283
292
300
301
301
300
298
297
299
300
298
296
298
300
298
298
301
297
295
295
294
293
291
293
294
293
292
292
291
290
291
289
291
293
293
295
297
298
297
297
300
301
299
299
297
296
294
292
290
288
286
286
287
288
288
288
288
288
288
288
288
288
285
287
288
288
282
289
310
274
273
287
286
288
291
288
289
291
289
289
290
289
290
287
289
291
289
285
280
278
279
280
279
281
280
281
282
282
283
285
286
288
288
287
286
287
288
288
289
292
292
291
291
290
289
290
288
290
291
288
289
289
290
290
286
295
325
285
283
300
301
303
305
307
309
308
304
304
303
304
305
306
308
305
304
302
301
301
300
300
302
302
300
303
305
303
301
299
299
298
297
298
297
299
300
300
301
302
300
301
300
301
301
299
299
300
298
298
299
298
297
295
294
295
295
294
293
295
298
300
301
303
302
299
298
300
297
294
284
323
300
268
288
289
293
291
290
295
296
296
293
295
299
298
300
301
302
300
297
296
298
295
296
298
297
297
298
298
299
297
296
298
298
295
292
291
291
291
289
290
291
290
290
290
289
286
283
285
289
290
289
289
290
289
291
292
292
293
291
292
291
288
286
286
289
293
293
292
292
288
288
287
279
314
284
262
283
286
284
284
283
283
282
281
282
283
283
284
286
288
288
288
286
285
282
280
280
280
277
277
278
280
282
283
284
284
284
288
292
297
297
296
299
299
296
296
295
293
291
290
290
292
292
289
288
287
287
289
289
289
288
290
289
291
290
288
288
290
292
293
282
316
302
269
288
294
294
294
293
293
291
286
286
287
287
289
291
292
293
290
289
288
286
285
283
284
284
287
287
287
288
287
287
290
290
288
286
287
289
288
290
289
289
285
286
288
292
291
290
289
289
290
285
286
287
285
286
287
289
288
287
286
289
288
289
288
292
292
292
293
293
293
293
282
312
317
275
287
296
296
292
289
287
288
289
290
295
296
296
297
301
300
295
293
291
291
290
288
291
292
294
295
295
297
297
296
299
302
300
299
299
302
298
299
300
301
302
302
301
302
301
303
303
305
306
304
301
302
300
300
302
301
300
299
298
300
297
294
292
291
290
287
286
288
291
291
290
280
317
298
268
291
295
296
295
296
296
296
298
303
305
304
304
305
308
304
304
301
301
299
301
300
300
298
296
296
297
297
296
296
297
299
300
301
301
301
301
301
300
299
299
297
297
299
296
294
295
296
297
296
298
297
296
295
295
294
293
295
300
295
297
297
299
293
297
322
285
280
294
291
295
295
296
297
300
302
301
297
298
298
300
299
298
297
296
294
292
292
292
289
286
286
282
283
282
279
280
282
281
282
280
279
281
284
283
283
283
285
287
288
288
291
289
288
288
289
285
281
280
280
274
272
269
271
271
268
256
292
279
245
266
273
273
274
276
280
279
278
280
283
282
284
281
284
285
283
282
280
277
274
272
274
274
275
276
278
280
282
283
284
284
285
288
286
288
288
288
289
290
289
290
290
293
293
291
293
293
293
294
293
296
296
297
297
298
300
300
301
301
303
303
301
304
302
298
298
299
300
291
296
328
286
283
296
294
297
296
297
299
299
299
299
298
299
299
298
300
299
297
290
292
291
286
288
285
286
287
287
288
289
289
287
287
288
286
286
282
281
283
282
283
287
285
284
285
287
290
289
290
294
294
294
294
294
292
289
290
291
290
290
288
292
292
290
292
292
290
292
292
295
291
289
322
288
277
294
296
297
296
296
297
297
297
293
294
295
295
293
293
291
290
286
285
282
280
275
276
277
278
276
275
278
280
282
285
285
286
286
285
286
288
290
293
293
295
295
295
298
300
298
298
299
300
300
298
297
298
301
300
300
300
300
300
303
301
301
331
291
284
303
301
301
304
304
304
303
304
304
301
303
305
306
306
306
306
302
299
300
304
305
303
303
305
306
306
303
296
294
290
286
286
287
287
284
280
282
280
280
281
282
279
278
278
279
280
280
279
283
281
280
279
277
278
280
278
282
282
280
280
281
279
279
281
285
288
287
287
290
278
301
311
272
282
292
291
293
294
294
296
297
299
299
296
296
295
295
295
298
298
296
293
295
294
294
293
293
297
295
294
295
296
295
295
296
297
297
297
299
301
302
301
304
306
306
305
305
304
303
301
299
298
298
296
294
295
291
289
288
289
288
286
288
290
289
289
292
292
290
291
293
292
291
281
319
296
274
292
291
293
295
295
296
298
299
303
301
301
302
301
301
301
298
297
294
292
291
290
288
287
289
289
286
284
284
283
282
284
286
287
287
287
288
287
291
296
296
296
297
295
296
297
294
293
295
296
297
298
300
299
299
298
299
296
294
295
293
290
290
322
289
277
296
296
296
297
296
295
298
299
297
294
294
294
294
296
294
295
293
290
288
288
288
285
288
286
285
284
286
287
286
285
283
281
280
280
283
282
281
279
279
283
285
286
289
289
288
288
290
293
295
294
295
296
298
299
300
301
303
301
303
304
302
301
301
303
302
290
326
301
279
300
301
302
305
304
304
307
305
304
300
300
302
299
298
295
296
293
288
288
286
284
285
287
289
289
288
288
290
291
288
289
290
291
292
291
293
294
291
291
292
290
291
292
295
297
295
295
294
293
294
292
296
296
296
295
294
296
293
294
296
298
299
297
299
298
294
293
293
287
324
292
274
293
292
291
291
295
293
294
295
294
292
288
289
292
293
292
294
292
288
284
285
285
282
279
277
280
280
278
282
284
284
283
284
289
289
287
288
289
287
289
291
293
292
292
290
291
290
287
288
290
290
291
290
290
292
291
291
290
292
288
282
284
315
278
270
288
290
291
292
295
296
296
293
295
297
296
297
299
303
304
302
298
298
295
295
297
297
297
296
296
296
295
293
292
292
291
288
287
288
287
286
286
286
286
284
283
286
285
283
281
283
284
282
282
282
281
279
280
279
276
275
271
274
275
271
267
307
272
261
278
278
279
280
280
283
285
284
286
287
286
287
285
287
288
285
284
282
285
282
282
285
288
289
289
291
292
296
297
302
302
300
298
301
302
300
301
303
303
298
295
295
298
297
296
295
295
297
296
294
293
294
291
292
294
299
298
296
300
299
295
292
297
298
296
292
291
292
291
290
284
288
321
280
276
292
289
289
290
293
292
292
292
292
292
291
291
295
295
295
294
292
291
290
292
294
292
294
295
300
299
297
297
301
302
302
300
302
303
302
303
301
300
297
297
298
296
294
292
293
292
291
289
290
291
289
286
284
285
288
289
290
294
294
293
292
290
291
290
282
289
315
279
274
288
287
286
288
292
292
290
288
289
291
292
294
294
295
295
294
292
290
287
285
284
283
283
282
285
284
284
285
286
289
288
289
292
293
293
291
293
294
292
292
294
296
295
295
297
302
300
302
303
304
303
302
304
306
302
300
301
299
291
305
327
285
288
298
298
298
298
296
299
300
299
300
299
301
301
302
304
305
302
298
295
295
292
291
291
295
294
294
294
298
299
298
298
299
299
299
298
297
295
293
294
294
292
290
288
292
292
294
292
292
294
292
291
293
290
289
288
291
292
291
288
288
286
283
283
286
288
285
285
286
286
277
283
312
272
272
283
282
286
285
284
283
288
285
285
287
291
290
289
292
292
288
286
284
284
282
283
285
288
288
287
288
290
292
290
288
288
288
287
289
288
289
290
289
290
290
291
288
292
291
288
288
287
288
286
286
285
286
286
283
286
285
286
286
287
284
283
284
284
284
272
304
287
256
276
281
282
283
283
283
284
286
286
288
288
292
292
295
297
298
294
292
293
294
295
294
298
300
297
296
296
295
295
296
298
300
299
299
299
304
306
303
303
302
301
299
297
297
295
294
296
297
298
297
296
296
294
294
291
293
292
289
288
285
287
316
276
273
289
288
288
291
291
291
291
293
294
294
293
295
298
296
296
297
297
295
293
291
291
290
288
290
289
287
285
286
287
287
283
279
282
282
283
282
282
281
280
281
283
282
283
283
285
286
286
286
288
289
289
288
290
291
290
291
291
287
285
283
284
283
280
281
279
280
276
275
277
266
295
301
264
276
281
281
282
285
285
283
285
286
286
288
293
296
296
292
295
293
293
291
290
290
288
286
286
288
286
284
279
274
270
268
269
271
270
269
270
274
273
273
275
276
275
277
277
277
278
277
281
285
285
289
290
293
292
292
295
298
298
298
295
293
295
292
291
292
296
294
296
297
294
290
290
291
293
289
291
323
289
284
297
300
300
301
300
304
306
307
307
308
307
311
310
310
312
310
305
304
303
302
298
294
297
295
293
293
297
299
297
297
299
298
297
293
294
292
291
293
291
291
289
289
289
288
289
288
290
288
285
287
292
293
295
296
298
298
294
291
290
291
291
292
293
292
292
292
292
291
290
322
285
279
295
293
291
294
293
293
293
296
296
295
292
295
296
296
297
298
293
287
286
287
285
283
286
288
290
289
291
293
295
294
295
298
297
296
295
297
297
294
294
294
293
291
290
291
290
289
289
290
287
287
287
289
289
288
288
286
286
285
282
281
282
282
284
284
285
283
287
291
290
292
291
290
291
276
311
295
267
287
289
291
291
291
289
292
292
291
289
287
290
290
292
290
292
292
290
290
289
289
285
284
286
282
281
282
282
283
284
283
283
281
280
279
281
280
279
278
276
274
272
272
270
271
272
273
272
275
274
274
276
276
274
273
269
272
267
266
266
268
266
265
272
272
268
270
270
272
272
263
279
297
256
260
272
275
274
274
273
275
277
277
281
284
284
284
285
289
288
287
287
286
288
286
283
286
286
288
290
291
289
290
290
292
296
296
294
294
297
296
297
299
299
298
298
297
296
294
292
289
285
281
278
275
272
271
274
273
272
270
267
258
271
285
243
249
262
260
264
262
263
262
262
264
268
271
272
277
282
282
281
280
279
277
275
275
277
274
274
274
279
282
283
286
289
289
290
288
290
290
288
289
289
292
291
291
293
294
293
292
295
298
296
296
297
297
297
297
298
302
302
302
301
301
305
306
294
321
323
286
299
307
304
304
303
303
299
297
299
300
300
299
298
301
303
302
301
302
299
297
297
298
293
294
295
296
298
298
295
294
291
288
286
286
285
284
284
286
287
289
289
289
290
290
292
294
294
294
292
292
292
290
288
289
291
292
289
292
291
291
290
292
292
291
290
292
279
302
308
267
282
288
289
291
290
291
290
295
294
294
294
296
298
294
292
292
292
290
289
288
289
287
286
287
288
288
285
287
291
292
291
292
291
291
289
289
288
288
285
284
286
285
284
282
281
282
281
282
284
282
278
278
278
281
281
285
286
284
281
280
281
282
276
314
281
264
282
285
285
286
283
284
283
282
282
283
285
289
293
292
288
286
284
282
282
281
280
280
280
280
281
280
282
286
288
288
288
288
288
285
285
289
290
289
290
289
291
290
290
290
289
285
281
278
278
277
278
277
279
279
280
282
282
278
277
276
279
281
283
289
288
286
286
285
287
283
278
321
289
272
290
292
294
293
292
293
295
293
292
292
292
292
292
292
294
292
290
286
289
288
284
286
286
285
284
287
290
289
287
286
289
286
284
286
287
288
287
288
289
291
289
289
292
293
292
292
293
294
293
292
293
294
293
293
296
295
294
292
293
293
292
290
290
290
290
290
285
284
283
285
288
279
296
314
273
280
290
288
291
289
287
286
287
290
287
284
285
286
285
284
285
285
281
278
279
282
284
283
282
279
279
278
278
280
280
278
278
280
281
281
283
285
285
284
283
285
283
281
281
284
283
282
280
284
285
284
283
284
284
284
286
285
284
283
282
283
283
280
281
284
289
278
312
302
268
284
291
292
297
294
293
291
293
293
294
295
298
299
298
298
298
298
295
294
296
293
294
293
294
294
294
295
297
298
297
298
297
295
292
293
294
296
295
293
292
291
291
290
290
291
290
286
288
291
291
290
291
292
291
290
291
293
291
292
294
295
293
292
293
293
294
286
297
323
281
279
292
292
290
292
294
298
298
295
297
300
299
299
297
299
298
295
293
292
290
289
290
292
292
291
293
293
295
293
294
292
291
290
288
289
288
287
286
286
284
283
283
284
285
281
280
279
277
278
278
280
280
281
279
281
280
279
279
282
281
282
282
285
285
284
283
282
283
279
272
311
275
263
284
284
289
289
287
286
288
283
279
277
277
268
265
266
267
265
263
262
262
260
260
260
264
266
265
267
269
270
273
272
273
273
273
272
274
275
275
275
281
282
280
278
279
281
281
282
285
284
284
283
285
285
285
286
286
288
288
288
288
290
289
287
288
289
277
296
305
268
280
288
290
289
286
285
281
282
285
285
284
283
278
279
282
283
282
277
276
275
273
271
273
276
277
279
282
284
288
285
285
285
283
281
281
283
284
285
285
288
289
288
288
287
288
287
286
286
287
286
287
291
289
285
284
282
283
269
296
303
261
275
284
283
285
282
280
279
279
274
273
274
274
272
274
275
276
272
267
265
265
260
252
217
141
77
53
45
43
43
47
57
61
71
80
91
99
112
124
132
144
154
166
172
180
190
199
207
213
219
227
231
239
246
254
261
266
270
276
281
287
296
304
309
310
312
316
316
318
315
357
327
309
330
333
338
338
338
344
343
342
345
346
348
347
346
350
348
347
347
347
347
347
345
344
343
343
339
340
340
338
340
339
340
336
334
335
333
330
328
328
326
324
320
321
322
323
322
322
322
320
320
321
321
320
317
317
317
311
310
306
307
303
302
303
306
303
300
302
300
298
293
298
328
289
284
297
298
299
302
302
305
306
303
304
304
305
311
312
313
311
307
304
302
298
296
295
296
295
294
292
293
292
292
292
293
294
290
289
288
290
290
288
287
289
288
287
289
289
291
289
290
288
289
289
291
290
292
289
289
292
291
289
288
286
285
282
283
316
281
277
295
296
298
297
298
299
299
298
294
295
294
293
295
296
294
294
294
296
293
294
292
293
292
292
293
296
294
292
294
295
299
300
300
304
303
299
300
300
302
301
299
298
301
299
299
299
299
295
294
295
296
295
293
295
297
294
293
293
294
291
291
290
292
292
289
290
294
294
293
282
316
306
268
286
293
292
287
286
286
285
287
288
291
292
289
290
292
290
288
287
286
285
284
284
287
286
283
283
286
286
285
287
286
290
291
288
289
290
291
291
295
297
296
295
299
301
299
299
299
299
297
297
297
299
298
296
299
302
298
298
298
300
298
298
297
301
302
298
295
295
293
291
283
323
293
270
290
297
300
299
298
298
295
293
294
292
293
291
290
293
294
290
289
288
287
286
287
290
289
288
289
294
297
298
298
302
304
305
305
306
309
305
305
304
304
299
298
300
300
302
299
299
302
301
302
301
303
303
300
302
303
301
297
298
300
298
296
292
329
295
274
292
295
297
297
296
299
297
294
293
296
296
294
296
297
297
294
291
290
288
284
281
284
283
280
280
280
281
281
280
281
274
266
264
263
268
266
266
270
272
273
272
272
274
273
275
278
281
282
282
283
284
286
287
288
291
288
285
286
285
284
284
284
289
289
293
291
292
292
291
292
287
291
324
285
281
298
296
297
297
300
299
299
298
299
297
297
299
298
296
298
298
297
295
293
293
294
293
291
294
297
294
294
294
292
293
296
298
299
298
294
297
294
292
292
292
294
291
292
294
295
292
289
294
295
292
293
292
297
295
294
296
299
297
296
295
295
295
293
291
292
289
288
280
291
315
274
271
286
287
285
286
288
288
288
287
292
294
291
293
297
299
297
294
291
288
283
284
285
284
282
281
285
286
286
285
288
288
284
284
282
285
287
290
291
294
292
293
293
295
294
292
293
293
290
289
289
291
293
292
293
292
292
288
287
275
304
283
251
273
274
272
272
271
270
271
274
278
277
277
278
279
281
279
278
278
273
268
269
269
269
268
268
269
271
271
272
278
278
275
274
275
277
276
278
279
281
280
280
280
281
279
278
280
281
280
279
280
283
283
285
288
288
286
283
286
285
285
285
284
288
285
279
278
272
283
306
266
272
282
278
276
277
278
277
280
282
281
281
280
283
282
280
281
283
281
282
281
283
284
285
288
289
289
290
289
293
289
290
291
293
293
292
292
295
295
292
290
292
293
292
291
293
292
285
282
283
281
277
273
275
277
278
280
283
284
285
284
283
281
280
280
282
284
284
285
287
288
275
309
303
270
288
292
296
295
292
293
295
297
297
294
293
296
294
292
292
295
293
289
286
287
288
285
285
286
285
285
283
287
290
287
286
289
292
291
291
294
293
291
290
292
295
295
294
296
296
295
292
293
292
290
290
289
292
291
289
291
295
295
293
296
299
288
319
306
274
292
295
296
299
298
297
296
298
298
294
293
297
298
296
293
293
289
282
280
280
278
274
274
278
277
277
278
280
279
279
281
283
283
281
281
283
284
282
281
282
283
282
283
287
287
287
288
291
294
294
293
296
299
297
295
295
295
294
289
294
293
294
291
292
293
291
290
278
318
303
269
292
296
297
300
300
302
300
300
302
302
304
304
303
305
301
301
302
301
300
295
297
300
296
295
295
296
294
289
288
285
286
283
280
281
278
276
276
277
276
277
279
281
279
279
279
279
281
280
279
283
284
282
280
283
285
283
285
289
292
289
287
289
291
287
284
284
286
283
283
279
321
293
272
294
297
296
298
298
297
295
294
296
298
297
298
298
297
292
290
289
287
288
287
288
291
289
287
289
290
293
292
293
297
294
291
292
294
296
294
295
296
296
296
293
298
297
293
296
306
317
324
329
334
338
338
335
338
339
338
337
338
338
337
337
336
335
319
347
344
307
321
325
326
324
321
319
319
321
320
318
320
317
319
314
318
320
317
341
340
343
342
338
336
331
328
322
317
316
313
306
300
296
293
288
283
281
278
275
269
266
263
257
256
262
262
262
263
266
265
264
265
269
269
268
265
262
261
256
255
259
261
262
259
260
263
264
263
253
258
292
245
238
250
247
249
249
251
248
248
251
254
253
253
257
259
259
262
263
262
260
260
262
263
266
268
270
271
269
270
272
271
273
271
267
270
266
266
265
267
270
268
272
274
276
279
281
280
278
274
275
276
276
273
272
270
269
269
271
273
278
279
281
284
287
285
287
289
279
308
310
273
289
297
296
300
304
304
303
305
307
306
305
307
310
312
309
309
307
304
301
301
303
304
302
301
301
301
300
300
299
300
298
299
296
295
294
296
300
300
300
302
301
302
299
300
303
304
304
302
302
302
302
303
305
304
305
300
301
304
302
293
304
324
284
285
301
299
298
297
301
302
298
297
299
300
300
297
298
301
301
299
294
292
293
291
294
294
293
294
296
300
301
298
298
302
303
300
299
302
296
295
297
295
297
294
294
296
294
292
290
292
289
287
288
292
293
288
288
290
292
290
293
296
297
294
292
296
299
297
298
297
299
296
288
300
329
289
286
299
298
297
295
295
300
299
299
302
301
297
296
295
296
293
290
290
287
288
285
284
281
274
270
269
270
270
269
271
278
277
275
276
278
276
277
276
279
280
281
280
282
284
281
281
282
286
286
289
291
291
290
292
296
298
295
295
295
295
295
294
297
298
296
300
305
304
303
303
302
301
294
309
336
294
294
304
306
307
307
304
306
309
307
307
307
306
303
299
302
301
294
294
290
290
289
285
288
289
289
288
286
287
286
288
287
287
284
281
283
281
277
274
273
274
270
265
265
268
268
271
271
275
275
273
273
272
276
272
272
272
272
273
275
275
277
276
278
282
275
286
308
270
272
281
281
283
285
283
284
290
292
291
293
294
296
294
296
297
297
292
291
291
292
290
288
289
290
292
290
291
293
289
290
290
292
291
289
291
292
290
286
285
288
288
288
286
289
289
289
288
292
294
293
290
290
289
288
288
290
288
286
286
288
283
278
317
284
270
287
288
291
289
288
288
291
294
294
294
295
295
296
295
298
300
298
299
297
300
297
295
295
295
294
292
296
297
296
294
296
296
297
294
295
295
293
291
293
292
289
287
286
286
285
284
281
282
281
279
279
281
282
277
277
277
275
273
273
278
283
280
279
282
285
281
281
272
313
285
264
282
283
281
286
286
288
286
287
288
289
286
284
286
290
290
290
291
291
288
285
285
287
283
281
286
288
286
287
287
288
286
281
282
283
284
288
287
289
290
292
291
290
290
287
288
286
285
283
286
293
292
291
288
290
291
290
290
291
291
291
294
293
289
287
287
289
290
278
312
303
267
281
287
290
292
290
288
289
290
289
290
290
292
291
289
291
292
285
283
285
287
285
285
286
285
279
275
276
279
277
275
277
279
280
281
284
284
282
285
286
289
287
285
283
285
286
285
288
292
290
288
291
293
290
290
290
292
296
297
296
298
299
299
296
296
328
291
278
296
294
291
291
295
296
297
296
296
295
295
297
301
306
303
302
298
294
289
285
288
288
284
285
286
287
285
286
289
290
287
286
287
287
284
284
287
288
288
284
286
284
283
280
279
281
280
280
280
285
287
287
287
288
286
285
287
290
290
290
287
285
285
281
282
285
274
298
302
264
277
279
281
283
282
280
279
282
278
275
273
275
279
280
282
283
282
274
271
268
267
265
265
264
269
270
272
274
278
277
280
279
282
275
260
258
258
259
256
256
257
257
259
256
258
253
235
234
234
235
233
234
238
236
238
242
248
249
250
256
262
262
266
266
268
271
270
275
281
272
311
289
266
287
288
290
291
292
293
292
294
296
296
295
296
298
297
299
300
296
294
297
299
300
297
300
300
303
299
299
299
300
299
303
303
306
305
303
304
307
307
304
305
311
310
306
304
304
305
306
305
307
304
303
305
305
306
304
309
310
308
296
322
325
283
295
302
304
304
301
298
297
297
294
296
300
304
302
300
302
298
294
289
290
288
284
287
289
293
290
289
291
292
293
288
288
293
290
290
295
297
294
294
294
292
286
283
283
281
277
275
275
278
276
280
280
283
282
280
280
281
268
288
297
262
275
282
282
281
280
281
283
288
287
285
285
288
290
289
288
291
289
284
285
287
286
285
283
281
280
280
280
285
284
281
282
284
286
286
286
287
286
286
283
284
286
286
287
287
289
286
280
283
285
283
286
289
293
292
292
292
293
294
292
294
296
294
295
291
291
292
291
280
303
318
272
280
290
288
288
288
287
290
289
291
293
295
294
293
293
293
290
291
290
288
286
285
288
292
290
287
288
289
287
286
289
286
285
288
290
289
286
285
288
288
287
283
279
274
269
267
270
269
266
264
268
270
271
274
276
279
278
273
276
277
278
280
281
285
286
283
284
288
287
284
283
320
284
276
290
294
294
290
291
295
296
298
294
294
290
289
291
294
294
295
292
292
292
289
289
289
291
290
288
292
294
294
293
295
295
291
292
293
293
292
288
289
287
285
284
284
286
285
283
285
287
288
288
289
290
290
289
291
292
290
288
290
280
317
300
267
286
294
288
291
294
292
293
292
292
293
292
292
295
296
293
292
292
291
284
282
285
284
282
282
285
283
283
285
288
291
292
290
294
295
296
295
297
297
291
289
292
294
295
292
295
295
296
293
296
298
293
293
294
294
293
292
292
294
293
293
295
299
294
290
295
296
298
287
307
321
279
287
297
293
291
292
295
297
296
296
297
299
300
295
296
296
294
290
288
288
290
288
290
291
290
288
287
288
289
284
284
284
284
285
288
292
289
288
284
286
289
290
288
290
291
291
292
293
295
294
294
295
296
295
293
294
293
291
288
286
288
286
285
287
288
289
286
286
287
284
285
276
294
314
271
278
289
288
288
288
288
287
288
286
289
286
283
286
285
286
286
286
288
285
281
281
284
282
281
280
283
283
281
283
284
286
288
280
284
286
285
287
289
290
292
289
293
294
293
290
291
294
291
289
289
290
288
282
282
287
286
288
289
291
288
284
285
285
286
273
294
304
264
273
281
283
284
284
287
291
291
290
290
293
293
294
296
297
294
290
288
290
289
288
290
291
291
291
290
293
292
293
293
292
293
292
289
289
288
289
288
292
294
292
291
294
295
290
292
295
295
290
286
286
286
282
281
283
281
279
280
282
272
301
291
259
279
286
281
286
288
289
290
291
293
294
293
298
302
303
300
301
302
299
293
289
289
289
286
288
294
294
293
292
296
298
294
296
297
295
292
292
293
294
291
290
292
292
289
286
288
289
291
289
289
290
292
288
291
291
292
292
291
292
290
290
289
289
287
286
285
272
300
306
265
279
284
283
283
286
286
287
286
290
287
285
285
289
289
290
291
292
288
284
285
286
284
280
282
285
281
280
279
282
282
280
278
281
285
283
286
290
290
291
292
293
292
286
286
285
287
286
286
287
287
284
284
286
287
288
286
286
286
286
289
292
298
299
294
297
297
297
285
298
327
280
279
289
289
291
287
285
289
286
285
286
289
288
288
290
292
293
289
288
289
289
283
285
284
283
285
285
292
294
296
296
294
296
292
289
288
290
288
288
290
292
289
289
288
288
288
288
289
291
286
285
285
290
288
286
288
288
288
286
280
312
284
262
283
290
291
290
291
294
292
289
291
293
296
292
291
297
298
295
289
286
283
280
276
279
283
281
281
288
288
289
287
288
286
284
284
287
287
285
283
288
288
289
289
291
291
289
287
289
280
302
298
267
285
292
295
297
299
296
293
291
292
292
286
289
292
289
285
287
288
287
286
285
288
286
286
286
285
286
285
286
286
284
283
280
281
284
282
283
285
287
288
289
292
290
283
281
282
284
279
283
309
278
271
288
289
290
292
291
293
293
290
288
291
294
293
292
294
293
288
281
281
284
282
282
282
286
283
284
289
290
288
286
289
291
286
286
286
288
286
285
288
289
290
292
291
293
294
294
295
302
301
294
292
297
296
294
282
298
312
278
281
299
297
297
299
301
305
303
302
304
303
302
302
303
305
300
296
294
291
290
287
289
288
287
289
290
294
294
292
294
294
291
290
290
293
290
288
292
292
293
293
299
304
303
305
305
308
305
300
303
305
308
307
307
312
311
309
309
314
315
312
309
312
309
306
303
306
303
298
299
289
303
323
282
284
293
289
282
277
274
272
275
277
281
281
281
280
279
277
276
280
279
277
274
275
280
277
279
279
282
281
276
278
282
283
283
285
291
292
287
287
288
290
286
286
290
288
286
286
287
286
278
273
279
279
279
278
281
284
282
284
288
289
288
290
290
290
288
292
293
294
290
289
292
290
288
287
288
282
295
312
274
275
284
284
285
289
287
289
291
291
289
288
289
293
290
288
288
292
290
288
290
291
289
284
283
284
278
275
272
276
278
279
279
283
283
284
289
293
300
295
297
294
292
290
290
295
296
295
296
299
296
292
294
293
294
294
294
296
296
294
295
297
296
293
295
300
301
301
300
298
299
297
296
297
284
321
300
274
291
289
289
291
289
287
285
285
288
288
290
288
290
287
284
284
284
282
282
274
276
273
271
271
273
271
271
275
278
279
280
276
280
282
280
280
285
286
282
280
282
282
278
277
280
282
281
282
284
287
287
285
290
292
287
286
288
288
287
287
292
295
290
285
316
287
269
284
288
291
293
294
292
295
294
291
294
295
295
295
297
300
298
296
294
296
296
295
293
296
294
293
292
293
295
293
293
291
289
287
288
293
295
291
293
296
298
296
296
299
299
295
296
301
300
295
296
297
296
296
285
308
312
271
281
291
292
290
291
294
296
294
292
293
296
296
296
300
303
301
296
290
288
283
281
279
280
280
277
281
287
288
289
288
291
291
289
292
294
296
294
293
292
292
289
289
288
285
283
283
288
292
292
289
295
294
292
288
282
314
288
266
286
290
290
288
289
289
288
288
291
294
295
295
299
304
302
301
298
299
300
298
299
300
297
294
291
293
292
292
292
294
292
290
287
288
288
285
286
287
289
286
288
290
291
291
292
292
295
292
292
292
291
289
288
285
285
281
274
276
275
273
274
276
273
271
265
265
266
254
270
289
257
259
267
270
277
277
276
278
280
282
281
281
282
283
285
285
286
287
284
284
283
283
284
285
289
290
286
288
289
290
285
282
287
286
286
285
286
291
291
294
294
292
293
291
292
295
290
290
292
295
291
289
290
292
290
288
290
291
289
287
290
291
289
288
292
293
289
292
291
295
284
303
311
278
287
295
295
299
299
296
293
299
300
298
297
300
297
299
301
301
300
295
292
294
292
292
290
294
294
291
290
294
292
290
290
293
294
291
292
297
297
294
294
299
295
292
290
291
294
290
290
290
296
295
293
295
294
289
286
286
287
286
284
286
288
282
282
280
283
279
278
279
281
271
301
287
261
275
279
281
280
279
277
278
279
277
275
274
278
278
277
279
281
279
274
269
270
268
268
268
270
274
273
274
278
279
277
276
278
279
276
276
276
280
279
274
275
274
274
274
275
278
277
276
277
278
277
272
271
277
277
276
279
282
285
282
285
290
286
285
284
289
288
278
313
304
273
290
295
300
301
297
298
301
303
303
305
308
309
309
308
313
312
308
307
305
305
303
302
303
299
294
294
295
297
298
296
299
299
293
291
291
293
288
286
289
290
286
283
284
285
283
286
288
290
290
285
283
282
282
282
281
283
283
282
285
287
287
285
281
287
289
287
288
279
307
301
268
285
292
290
288
293
294
293
292
297
299
299
296
299
297
296
297
297
298
294
292
294
293
294
291
291
293
292
291
291
293
295
292
294
296
296
295
293
294
294
290
290
291
292
289
289
291
289
289
291
290
283
284
287
290
289
290
291
295
294
293
295
294
291
290
287
289
289
278
313
298
269
289
291
292
291
288
289
290
290
288
287
289
293
296
295
297
295
291
289
288
290
290
288
287
291
291
286
287
291
290
286
289
291
291
289
289
293
291
291
291
292
288
284
286
286
286
282
282
283
285
285
284
288
286
282
281
284
286
285
284
287
286
282
280
280
281
274
264
301
274
258
278
281
287
286
283
285
287
284
283
283
284
283
283
287
287
286
285
283
285
285
281
280
283
283
280
284
287
285
283
281
284
281
280
282
284
284
280
280
283
282
277
282
281
280
278
281
284
281
279
277
279
282
277
279
283
285
286
282
288
291
281
314
296
272
287
288
290
291
291
293
295
295
294
291
295
298
297
297
297
298
294
290
288
287
279
276
279
281
280
277
278
279
279
279
283
288
288
284
286
291
285
283
288
287
287
288
286
291
292
285
278
279
281
277
275
270
309
290
263
284
285
283
283
283
285
283
284
288
291
292
289
292
292
289
288
286
285
281
280
278
277
272
273
276
282
281
279
280
283
283
285
285
288
290
285
288
291
293
296
293
298
297
294
295
299
296
291
289
290
287
283
270
298
304
260
277
285
285
285
283
285
285
283
283
282
287
285
284
288
290
288
287
286
288
283
280
278
279
281
283
284
284
284
282
281
282
281
278
282
282
282
283
283
286
288
290
292
294
293
295
296
300
296
298
296
293
296
293
294
296
294
290
287
291
291
286
282
283
281
269
288
300
259
266
273
276
277
275
274
275
277
275
271
270
271
261
256
248
251
251
250
253
258
259
262
262
268
269
268
272
276
276
277
280
286
284
284
285
287
285
289
290
296
294
292
292
293
291
290
291
296
296
294
294
293
289
317
297
279
299
301
301
304
301
295
292
293
297
296
296
300
302
303
299
299
300
295
295
294
296
293
291
290
290
289
289
292
296
293
287
289
291
291
291
292
295
296
296
294
295
296
289
288
285
294
306
273
277
288
287
288
289
288
285
286
289
291
292
291
298
300
295
292
291
286
285
285
286
288
287
289
294
298
292
288
288
288
284
284
282
282
281
282
282
283
277
276
277
281
273
287
293
267
273
280
282
284
282
280
283
286
288
288
291
293
290
292
290
292
290
287
289
291
291
290
291
296
298
298
297
296
296
294
294
298
300
297
292
294
295
291
288
292
294
290
288
290
292
288
284
276
295
300
272
281
289
290
289
291
294
292
291
293
293
290
288
290
294
292
294
291
293
290
286
285
282
280
277
279
282
280
281
281
285
284
281
283
286
282
276
275
278
280
279
279
283
284
286
286
293
294
292
293
293
295
296
293
294
299
296
298
300
303
298
298
299
299
295
293
292
294
295
292
297
301
299
293
320
306
284
293
295
298
294
290
288
291
291
291
292
297
295
293
297
301
303
299
300
304
298
296
293
291
291
285
288
290
288
288
287
287
288
284
284
284
285
282
283
285
284
280
280
282
286
285
287
290
291
292
289
291
292
291
289
291
293
291
288
292
292
290
289
287
288
286
288
292
293
292
286
286
287
280
278
300
282
265
272
271
272
273
272
272
278
277
276
274
278
279
280
279
283
283
280
277
280
280
279
278
280
279
278
278
281
284
283
281
284
284
285
282
284
287
283
283
282
287
284
282
282
283
282
283
281
283
280
280
281
282
283
279
280
277
274
271
271
277
278
274
274
276
276
274
272
277
281
280
282
280
297
307
280
283
288
286
286
289
294
290
288
291
289
286
286
291
294
294
296
299
298
296
292
293
291
289
288
289
293
292
292
294
292
285
286
285
287
288
288
290
292
297
296
298
305
304
308
311
314
313
309
308
309
311
311
308
310
309
306
305
307
308
306
305
312
310
307
306
307
308
304
308
310
308
334
323
298
314
315
313
312
315
310
307
312
311
307
305
303
301
297
295
293
288
285
281
276
278
278
277
279
278
279
278
281
280
279
278
281
286
283
283
282
285
284
281
278
279
276
278
282
285
285
281
280
281
280
280
280
284
288
284
289
291
293
291
290
290
292
291
292
292
294
291
286
285
282
283
301
280
280
289
292
295
298
297
290
292
290
290
290
292
295
294
290
290
288
284
281
278
280
275
269
271
271
270
266
266
267
267
261
253
254
252
248
247
247
247
250
252
255
254
254
259
264
262
260
259
260
263
260
260
261
265
262
262
268
271
272
273
273
278
279
282
282
281
282
280
287
291
287
313
301
281
294
294
297
297
295
296
298
300
300
298
300
302
302
300
303
305
303
298
295
296
294
292
295
299
296
293
294
293
291
287
287
286
285
281
281
283
280
278
278
281
282
282
282
285
287
285
287
289
289
287
288
290
290
290
290
295
295
293
293
297
300
295
294
294
294
292
289
292
286
292
308
281
279
286
281
282
285
282
280
280
285
284
284
284
287
286
289
289
293
293
289
288
292
295
293
295
302
300
299
298
300
298
295
296
297
295
293
293
294
295
295
296
295
299
297
297
303
304
304
302
304
309
307
306
307
309
304
303
305
307
304
302
304
307
306
307
308
305
302
297
296
298
288
309
306
279
290
293
295
298
297
297
295
295
293
286
286
291
289
286
283
285
285
281
281
283
285
280
279
284
285
281
279
280
282
281
282
290
287
284
285
289
293
291
292
296
298
298
293
296
299
297
300
302
301
301
299
300
297
295
293
287
288
288
289
289
292
289
288
286
289
288
285
285
291
289
282
291
304
276
276
285
281
281
279
280
279
279
278
277
281
280
278
279
282
281
274
270
270
268
266
267
273
275
273
271
272
276
274
273
276
277
276
273
277
280
277
274
278
277
277
279
284
288
287
285
288
289
291
288
287
291
288
286
291
297
296
294
295
295
293
292
290
291
291
289
290
292
295
291
289
292
315
292
277
295
294
294
296
297
297
299
298
302
301
299
299
299
300
299
298
300
297
296
297
297
302
298
297
299
297
296
295
298
298
293
290
292
294
293
289
290
292
296
296
298
303
303
299
300
299
298
295
295
295
293
292
293
296
296
292
291
290
289
287
285
289
292
291
292
291
292
289
288
291
281
296
292
262
276
277
278
284
284
284
280
282
283
284
284
286
288
288
287
291
296
292
286
289
292
290
285
288
288
287
283
280
283
284
284
288
288
293
289
290
296
298
295
297
301
299
297
299
299
296
295
293
296
297
298
300
300
298
297
295
294
292
289
290
293
295
292
290
291
292
288
287
289
284
299
308
277
281
288
286
284
286
286
284
280
279
277
277
279
278
278
279
280
280
276
273
275
275
270
268
266
268
266
267
268
269
272
271
273
273
272
272
272
273
274
272
274
272
275
272
272
276
275
277
281
281
281
279
282
288
287
288
287
289
291
287
287
289
289
287
283
285
288
286
276
305
295
265
284
292
293
292
290
289
292
291
291
292
295
294
293
297
305
305
304
302
301
298
293
292
292
291
293
294
295
292
288
285
288
288
287
288
290
285
284
281
286
289
284
284
289
291
288
284
289
290
288
288
286
288
278
256
258
255
253
254
256
260
261
261
263
265
262
260
252
278
282
249
260
266
266
265
272
274
274
274
276
283
286
287
291
294
290
288
287
290
289
289
288
291
292
290
293
298
295
292
291
291
291
290
290
292
292
292
290
297
299
302
304
305
306
306
305
309
307
305
304
303
305
300
300
302
302
298
293
296
300
298
294
295
297
294
283
303
315
273
281
289
288
288
289
286
287
288
285
288
295
295
292
290
293
291
290
290
292
292
290
290
294
295
294
298
297
294
292
295
297
296
301
303
305
309
306
305
310
308
307
301
302
304
303
301
295
292
289
287
288
288
289
295
299
299
299
298
300
300
288
323
302
276
295
292
296
296
293
289
288
289
290
289
288
292
293
293
293
294
288
284
284
286
285
283
279
277
276
272
272
275
274
273
273
273
275
273
274
273
274
276
277
279
273
269
270
272
271
269
266
308
272
258
272
275
277
272
270
273
274
272
272
274
280
278
282
285
288
286
282
280
278
274
273
275
279
279
279
281
283
283
283
288
293
291
291
293
297
295
295
292
295
295
294
294
297
296
285
323
297
276
294
293
290
288
286
286
286
288
282
276
277
276
276
272
270
270
264
264
262
263
263
260
260
261
261
259
259
261
261
256
257
258
259
256
256
260
258
258
261
257
213
194
182
179
178
180
182
186
190
191
195
204
206
204
210
215
218
212
215
250
225
216
234
242
244
244
252
261
263
266
268
274
275
276
280
283
288
287
286
290
292
293
294
299
299
298
297
299
303
302
303
308
308
310
311
313
315
314
316
317
319
320
318
318
321
315
312
310
307
327
330
296
310
321
321
323
326
323
321
324
324
325
324
324
327
325
319
313
311
308
299
297
297
294
291
288
294
296
294
296
294
294
290
287
290
288
283
280
277
273
263
257
256
255
250
249
252
256
255
259
260
261
252
284
277
244
261
265
267
271
266
261
267
271
271
271
271
276
274
276
280
281
280
279
280
285
286
286
288
292
299
292
295
299
297
295
295
300
300
301
300
301
301
296
296
300
297
295
290
296
297
291
289
291
291
292
288
288
288
283
282
283
285
282
280
284
288
284
273
288
311
273
272
285
287
288
288
289
293
292
288
291
292
291
287
288
291
292
293
292
294
296
292
294
300
298
295
296
300
301
299
300
299
299
297
296
297
295
294
297
299
300
298
295
297
299
297
293
297
297
293
294
298
301
299
295
296
297
295
298
299
300
295
290
288
274
309
302
268
281
283
283
284
289
289
289
292
296
296
295
291
293
294
293
292
291
290
287
285
288
285
282
281
279
279
276
277
282
281
278
276
276
278
274
273
277
276
273
273
276
277
275
273
274
276
275
273
277
275
271
269
272
258
243
241
257
216
208
217
177
162
152
148
151
158
159
159
166
172
177
181
184
192
194
195
202
210
215
220
226
233
235
239
243
251
256
256
259
268
273
278
279
285
289
293
297
299
302
304
307
315
317
318
319
320
323
320
315
354
324
308
325
331
332
328
327
332
337
338
335
336
340
341
343
341
341
339
333
330
330
331
328
327
326
323
320
323
323
320
317
317
319
315
314
313
316
315
310
311
315
315
314
313
318
315
312
313
314
314
310
308
311
308
307
307
308
309
304
306
307
306
292
326
308
284
302
303
301
300
298
296
301
303
301
300
298
300
299
296
297
302
299
296
297
300
298
297
299
299
296
292
294
296
293
291
288
293
294
289
287
286
287
286
285
291
288
286
288
288
285
280
280
285
282
284
284
288
291
287
289
290
289
288
288
290
290
284
284
273
305
293
257
276
279
275
272
276
282
279
281
287
289
288
285
289
293
290
288
288
287
282
282
282
280
280
276
280
283
281
277
278
282
280
279
278
279
278
277
278
281
284
283
282
283
283
281
283
286
289
290
291
291
290
289
288
291
291
288
286
289
286
283
283
285
275
303
297
263
279
285
285
293
293
297
295
297
302
300
301
304
305
305
301
305
304
300
301
305
315
314
313
314
318
315
314
316
320
321
320
322
323
323
321
322
322
316
311
308
310
308
307
309
313
313
310
305
307
305
302
303
303
305
301
302
289
310
316
280
298
305
305
308
306
304
300
299
299
298
296
293
294
296
293
294
294
289
288
283
283
286
279
280
285
288
290
288
290
294
296
295
295
297
292
286
287
287
284
280
279
282
277
275
277
285
284
282
280
286
284
282
280
280
282
280
283
287
288
285
280
282
280
275
313
283
271
289
284
289
285
282
286
286
287
285
281
284
285
284
282
281
283
284
281
277
278
278
274
279
282
284
288
292
296
295
293
296
296
293
293
298
302
297
297
295
299
296
290
291
292
289
284
281
284
285
278
276
282
282
280
277
282
284
280
280
282
284
281
280
279
312
278
269
286
285
285
284
289
290
292
288
293
296
294
294
297
297
298
294
297
296
293
291
290
290
289
289
292
294
294
290
292
296
292
292
292
294
290
285
289
290
288
286
290
292
291
290
290
289
285
282
283
285
280
272
305
280
266
281
285
291
292
288
287
287
289
286
286
290
292
292
292
293
294
290
288
288
288
286
282
286
286
282
282
283
287
287
285
288
288
286
282
283
285
283
285
284
284
282
280
279
280
281
280
280
283
282
279
282
281
282
276
275
278
275
262
297
274
257
270
267
270
273
274
270
274
276
276
273
277
281
282
281
289
289
289
292
294
294
296
297
299
298
298
301
302
306
302
299
301
302
300
295
299
298
295
289
291
295
296
292
295
299
299
297
294
298
296
294
296
301
304
302
300
308
304
305
305
307
309
303
303
307
303
291
327
298
280
293
293
293
293
289
286
288
286
285
283
285
284
279
277
279
281
278
274
278
280
277
278
283
285
282
278
282
284
283
283
281
285
282
283
288
289
287
286
287
293
291
291
292
292
290
289
288
290
289
290
291
297
297
294
286
297
314
274
273
288
286
288
290
292
292
289
289
293
294
293
294
298
301
300
298
296
292
291
288
287
286
283
282
284
287
283
281
283
282
279
282
286
292
290
289
294
295
296
293
296
298
297
295
296
299
299
299
300
290
309
316
276
291
297
296
295
292
287
283
280
280
281
282
281
286
293
287
283
284
278
274
271
276
274
271
271
272
270
272
272
280
281
277
275
278
282
280
277
281
282
280
280
282
288
285
284
285
286
286
285
286
290
286
286
286
291
292
291
292
299
299
292
291
295
290
290
281
311
312
270
285
294
293
292
290
293
294
294
295
297
294
292
287
290
292
288
289
288
289
289
287
289
288
285
285
286
288
285
284
287
290
291
290
287
289
286
286
290
289
288
288
289
288
287
286
286
286
284
282
283
285
285
284
282
285
282
281
284
288
291
291
289
271
265
260
257
262
247
278
268
236
255
260
261
265
264
218
180
168
161
154
155
157
159
164
166
168
171
171
179
187
194
195
200
205
211
213
215
222
228
232
236
243
250
250
254
259
269
271
275
283
290
292
293
298
301
300
302
306
312
314
316
317
322
318
313
317
321
310
334
334
299
314
317
318
327
328
326
325
326
326
323
325
328
328
328
326
326
326
322
320
326
326
323
321
323
324
320
319
320
321
314
311
309
310
309
309
311
314
314
310
309
309
306
302
304
303
299
296
294
298
296
292
294
297
294
293
292
297
296
291
293
289
285
271
312
288
265
282
284
288
292
290
290
293
291
289
286
287
291
288
288
291
292
291
288
287
285
283
279
280
283
282
278
283
283
284
282
283
285
282
284
285
286
282
279
281
285
286
286
289
297
292
289
290
292
293
292
290
293
293
290
295
298
299
295
291
294
293
290
286
279
315
287
264
284
285
283
281
281
280
278
280
281
285
287
286
288
290
289
284
285
285
283
282
283
281
282
279
283
286
285
281
282
282
281
279
282
285
287
285
283
284
286
284
290
292
289
289
290
297
292
292
295
300
301
297
297
298
295
296
286
304
326
285
286
298
298
299
298
303
304
305
305
308
307
304
304
310
306
298
296
299
301
296
296
296
296
296
295
298
300
299
299
302
301
295
288
289
290
288
288
289
288
286
286
285
282
280
274
278
285
283
281
283
286
284
278
277
283
283
284
285
287
287
283
284
274
300
301
257
276
280
276
279
279
278
276
279
284
285
288
287
289
287
284
281
283
282
281
280
283
286
286
288
289
291
288
285
290
291
288
285
283
286
282
282
286
292
295
291
291
293
292
292
291
292
292
292
292
294
294
292
290
291
290
285
284
285
285
279
277
280
278
268
294
301
261
272
280
279
280
277
275
279
283
283
284
286
286
285
288
292
295
297
299
300
302
301
297
295
295
291
288
288
295
291
292
290
293
295
294
294
297
295
297
297
297
294
291
292
293
293
290
291
294
296
296
300
300
303
302
300
287
320
301
271
294
300
297
297
300
298
300
301
305
306
304
305
307
310
308
304
304
301
301
298
300
297
293
293
296
294
291
289
290
292
288
287
288
292
290
287
290
290
288
286
285
289
290
288
288
287
287
284
286
290
289
289
290
291
290
285
286
290
285
282
272
291
319
278
278
289
284
282
282
285
286
281
282
283
284
279
278
274
266
263
258
256
260
254
254
256
257
256
256
261
265
265
266
268
270
271
267
273
273
273
273
275
277
274
275
279
280
276
272
272
276
271
270
272
274
273
272
272
272
272
272
269
272
275
275
277
279
280
280
283
275
295
310
272
281
291
288
287
290
290
288
290
295
297
292
295
301
302
301
301
304
303
298
295
296
296
292
292
292
297
294
289
289
294
290
286
287
288
287
281
282
279
274
272
272
274
274
268
272
274
274
273
272
272
272
268
273
277
282
288
285
291
293
289
280
318
293
266
288
294
296
300
300
306
305
302
305
309
311
311
311
315
313
308
307
305
305
301
300
300
299
297
297
296
300
299
296
298
300
299
297
299
300
298
298
296
297
293
290
293
296
293
291
290
293
293
290
287
290
292
290
287
290
289
290
288
290
282
319
286
272
288
291
294
298
299
294
288
290
291
288
285
289
290
288
288
286
287
282
279
280
282
283
279
280
282
279
279
279
284
283
282
282
283
285
282
285
290
289
288
287
289
290
282
281
285
282
280
278
285
286
282
282
283
281
279
277
279
280
278
281
286
289
275
292
316
274
278
288
290
295
291
290
293
296
293
293
296
299
297
299
301
300
296
291
292
293
289
290
288
292
289
284
286
289
285
283
286
290
289
286
288
293
294
291
289
294
292
292
293
296
296
294
296
297
297
295
293
299
299
296
299
301
304
300
297
301
299
286
311
314
278
290
298
302
301
299
297
301
301
302
299
300
303
303
299
303
303
297
298
296
295
291
287
288
288
284
280
280
286
285
280
283
288
286
281
282
283
281
279
278
278
276
272
270
273
271
271
271
277
280
279
280
287
286
281
282
284
284
281
272
280
314
271
264
279
282
280
277
279
284
284
286
286
288
284
282
288
290
288
284
284
286
286
287
291
292
293
289
291
295
290
292
292
297
297
293
293
295
296
296
296
298
298
298
298
298
297
293
292
298
298
294
293
295
296
291
293
295
296
294
291
294
291
287
285
288
288
286
286
288
279
317
291
268
289
282
281
284
286
286
285
286
289
285
283
285
287
286
281
285
288
286
284
283
284
282
281
280
283
285
286
287
292
290
286
288
291
291
288
289
292
289
288
288
290
289
286
284
289
290
288
286
291
293
292
294
298
295
292
287
290
290
291
286
287
289
288
287
286
289
275
303
292
265
280
284
288
289
289
287
286
288
289
290
290
294
291
290
291
292
292
288
288
288
284
282
280
281
281
275
275
283
283
283
285
288
287
286
283
284
284
281
281
284
285
280
279
281
287
284
287
295
295
298
293
297
298
293
280
317
294
272
288
295
300
298
298
300
305
302
296
296
299
300
301
302
303
301
296
295
298
298
293
294
296
294
293
290
292
290
285
287
290
290
290
290
297
294
292
291
294
293
288
286
287
290
287
284
285
285
282
279
287
286
285
281
286
287
285
271
286
313
269
272
287
288
288
288
290
294
289
288
291
292
290
286
288
288
285
285
284
287
284
281
286
290
287
286
285
288
288
287
288
286
285
282
280
284
285
282
285
285
285
283
285
289
288
288
286
288
291
288
286
290
290
289
288
290
290
286
287
292
295
293
288
290
293
287
271
294
312
267
274
282
285
286
287
290
293
293
290
290
291
289
286
289
293
292
290
289
287
284
279
283
284
284
284
283
286
287
285
285
289
289
286
283
288
284
285
284
286
286
280
281
284
283
281
276
281
283
282
284
284
283
285
284
287
288
286
287
293
284
294
312
273
281
294
294
297
301
299
295
291
293
291
289
292
297
295
292
292
292
288
286
288
289
287
286
285
288
288
286
287
289
290
287
287
290
288
287
288
292
291
288
287
290
290
290
288
290
289
286
287
290
292
290
288
288
283
282
284
288
293
291
293
292
293
293
293
281
315
310
268
285
289
285
284
285
289
286
286
287
290
289
282
282
284
287
283
282
286
285
281
279
281
281
279
282
286
286
286
285
290
289
286
284
286
286
281
280
283
282
281
281
284
288
283
280
284
286
289
287
288
291
289
289
291
295
296
291
292
295
295
296
296
298
295
293
293
281
308
314
272
288
288
289
292
296
297
293
296
299
298
299
298
298
298
299
298
297
296
294
293
295
295
292
293
297
298
297
295
296
295
294
292
294
296
296
297
298
299
294
291
292
290
289
289
290
293
289
284
284
288
284
283
284
289
285
281
286
287
286
285
283
281
313
279
264
285
282
283
282
289
289
289
291
294
296
291
292
296
297
294
295
295
295
292
290
291
292
288
286
289
287
285
284
288
289
286
287
287
288
285
281
286
286
282
280
282
285
282
280
289
292
295
292
293
294
291
286
285
289
291
289
291
291
288
285
286
277
301
310
272
283
286
289
293
299
299
295
294
294
296
292
291
296
293
293
292
294
292
284
284
287
288
287
286
290
290
288
288
293
295
292
290
294
290
289
287
289
293
292
292
296
296
294
292
293
297
294
291
290
293
291
289
292
297
294
291
290
290
289
289
292
291
287
284
283
276
291
315
274
280
288
281
280
285
282
285
286
288
287
283
284
286
287
289
290
293
292
287
283
284
287
283
283
290
291
286
286
291
291
284
286
289
290
289
285
291
295
291
292
293
293
290
290
294
297
299
301
302
305
299
299
299
298
295
295
298
304
297
296
297
302
301
288
327
303
277
292
293
299
298
292
293
294
293
292
294
298
296
292
294
299
300
297
294
296
292
291
290
296
294
288
288
292
294
291
292
298
300
294
291
291
296
297
295
297
298
295
291
291
293
288
288
289
289
286
284
288
292
290
288
292
293
291
277
308
314
273
287
295
295
294
292
294
295
294
293
292
295
293
289
289
293
294
290
288
291
288
287
284
286
286
280
280
282
282
281
276
280
280
278
279
281
279
275
277
280
281
280
282
285
290
284
284
286
290
288
286
288
290
286
283
288
293
291
291
295
294
288
284
283
287
288
277
289
319
274
273
282
285
285
285
286
290
292
285
284
286
283
281
280
283
281
277
275
276
275
272
271
275
276
275
277
281
281
278
277
280
281
280
278
279
283
279
282
284
283
280
278
282
284
280
279
280
281
281
276
280
282
279
275
275
279
280
278
281
285
289
284
283
286
285
287
274
303
319
276
287
294
290
291
288
292
287
285
287
291
293
292
291
296
295
295
294
297
297
293
292
296
294
293
292
297
297
295
296
298
301
298
293
296
294
291
289
292
296
290
290
293
292
293
287
288
290
289
293
296
298
296
296
296
300
296
295
296
293
315
322
282
295
302
297
296
302
296
295
294
298
298
295
296
302
302
301
298
300
292
286
290
291
290
288
285
288
289
284
285
288
288
285
286
289
286
284
283
283
285
282
280
281
279
279
279
283
288
284
282
286
288
286
282
285
290
289
283
283
285
281
277
265
294
300
257
271
280
278
279
280
283
282
279
282
281
278
280
280
284
283
281
282
286
286
282
282
288
290
289
291
296
297
294
294
296
294
293
291
292
294
289
292
292
291
289
288
289
289
286
289
291
295
292
289
292
294
290
288
288
290
285
283
282
282
281
281
284
285
283
284
286
281
291
315
272
276
285
283
284
288
288
288
288
288
291
290
288
292
293
291
289
293
292
286
285
287
289
286
286
287
290
285
286
288
288
287
286
289
292
288
290
293
295
291
287
290
290
289
288
291
296
293
292
292
290
291
288
290
293
290
288
288
286
282
281
281
269
290
298
258
276
284
280
280
283
283
277
280
285
287
286
288
294
294
289
291
291
289
287
287
292
288
287
288
291
293
290
288
290
291
290
291
294
297
292
290
295
295
290
290
293
295
290
288
291
293
289
285
289
290
288
283
283
285
282
270
286
311
269
273
285
286
284
280
278
281
281
280
282
286
285
286
286
289
290
287
287
288
287
286
288
289
289
289
291
296
297
295
293
295
294
291
289
294
296
292
292
295
295
291
290
295
295
293
294
294
291
290
288
292
293
292
289
291
292
290
288
290
294
293
291
293
294
292
277
311
316
276
288
293
293
294
291
290
293
294
288
293
293
290
288
285
288
284
283
286
287
285
280
280
285
283
282
282
284
286
283
283
286
288
284
281
283
284
280
279
284
286
282
282
289
289
285
281
283
285
279
278
282
283
280
280
283
282
277
279
280
285
283
279
284
285
283
280
269
293
305
261
268
278
279
282
280
281
284
285
286
288
291
286
291
293
291
290
286
289
284
280
283
283
284
283
284
288
292
290
293
298
296
290
288
290
290
289
289
291
295
293
290
292
290
285
277
277
276
272
268
271
274
270
269
270
263
302
270
251
277
274
276
275
280
278
278
278
280
276
271
273
276
273
272
273
273
271
272
272
274
271
268
270
269
269
265
263
264
257
250
247
250
247
245
247
252
254
253
252
259
259
257
259
258
260
261
258
264
265
263
268
271
277
276
266
311
291
266
290
296
301
296
295
298
303
303
301
307
310
307
307
310
312
312
307
309
308
306
305
306
309
304
300
303
305
308
307
310
315
313
312
310
317
321
319
321
322
320
319
320
325
326
322
321
323
323
318
318
319
319
317
315
316
318
315
315
313
312
307
304
307
296
334
313
285
303
300
299
300
302
297
297
297
299
296
298
300
301
299
297
300
304
302
300
301
302
302
296
295
298
293
290
291
294
292
288
288
288
289
287
286
289
289
284
287
287
286
281
280
284
280
281
281
285
288
285
281
284
285
279
278
273
310
286
263
281
287
283
285
286
285
286
285
287
292
290
290
295
297
295
293
293
293
289
284
284
285
283
282
284
288
285
286
286
289
285
282
285
288
288
288
292
297
297
293
292
294
297
295
293
296
293
293
290
291
293
289
291
295
283
312
310
275
288
293
295
297
298
294
294
297
295
292
292
292
294
289
285
289
288
288
285
287
290
284
285
285
286
287
285
287
290
286
286
287
292
290
285
288
290
291
288
287
291
288
284
282
283
280
276
277
280
280
281
280
288
285
283
286
289
288
281
321
286
270
283
285
288
289
286
288
293
297
298
297
300
302
296
296
301
301
300
295
294
295
290
287
288
290
289
289
298
299
298
295
296
298
294
293
294
294
295
290
291
292
292
293
295
297
294
292
294
296
294
294
295
293
291
291
292
294
296
293
290
291
289
286
283
276
318
287
268
287
288
288
290
293
292
289
289
291
292
291
289
293
293
290
289
290
290
284
282
287
286
288
285
288
288
285
286
290
291
290
289
292
295
290
285
284
287
284
281
281
282
283
282
285
292
291
291
291
299
299
298
294
298
297
294
296
290
301
324
285
285
294
289
289
293
292
289
290
290
290
289
288
288
288
289
288
290
291
289
287
290
291
288
285
287
288
285
285
286
288
288
286
291
292
291
291
292
297
293
290
293
295
292
286
289
293
290
288
290
294
292
290
290
294
286
287
288
291
289
289
291
293
286
286
286
291
276
305
308
272
283
286
284
289
288
286
284
283
284
280
282
287
290
288
287
293
294
288
287
289
290
285
283
286
287
281
283
284
288
288
286
290
288
286
281
287
289
288
286
287
290
285
285
288
289
289
290
288
291
287
287
291
293
292
289
289
293
292
290
289
292
293
283
286
289
289
287
275
305
310
269
284
294
291
289
292
298
298
298
300
299
299
298
297
301
299
297
293
295
296
292
289
292
291
291
288
291
295
291
291
293
295
292
288
291
293
288
284
287
286
283
282
284
286
288
286
289
294
292
290
291
292
293
293
295
297
294
292
294
296
280
307
302
267
284
285
286
289
289
286
286
290
289
286
288
288
286
286
287
290
292
287
288
292
291
288
287
291
293
288
287
290
293
290
289
292
291
287
287
288
289
285
286
288
291
293
294
296
299
296
295
296
297
297
293
291
294
293
292
288
292
293
290
291
278
312
307
268
287
288
286
290
291
291
291
293
293
292
291
290
294
292
289
289
292
290
288
283
285
285
280
281
284
286
284
283
287
288
288
283
284
286
284
284
286
284
285
285
290
290
288
285
288
290
289
285
285
284
283
282
281
284
285
288
288
284
283
280
281
285
272
319
293
274
292
293
296
299
297
295
294
296
296
295
296
298
299
299
298
299
296
291
292
291
291
282
279
282
283
283
283
287
293
292
291
290
290
285
283
287
285
285
285
286
287
286
285
286
286
283
280
280
285
280
278
280
284
284
283
283
288
285
280
279
282
279
275
269
289
307
268
275
286
282
282
283
287
288
285
284
288
283
282
282
284
288
284
283
286
287
286
286
288
287
281
282
283
284
282
278
283
283
274
267
266
269
265
267
270
273
272
270
275
278
277
279
278
280
278
278
282
282
281
317
284
280
296
294
296
300
299
296
295
300
298
301
303
304
302
302
305
304
299
296
294
300
301
296
298
299
296
295
289
288
283
279
279
281
281
279
281
287
285
281
282
288
289
288
287
291
292
292
291
292
295
289
290
289
294
325
280
277
292
289
289
291
294
291
290
292
295
293
289
295
301
296
293
296
295
293
288
289
292
286
280
280
284
282
278
281
287
286
283
284
288
285
284
285
289
290
285
285
289
287
284
280
286
286
280
282
286
284
281
281
287
290
285
285
286
290
286
286
293
297
293
289
291
296
290
287
281
324
300
269
287
289
282
280
279
282
277
276
277
283
280
276
277
284
281
280
282
285
285
282
281
288
284
283
283
286
284
278
282
283
283
283
285
292
291
285
284
288
288
284
283
293
296
293
290
293
296
290
287
291
290
289
282
285
285
276
277
281
280
280
276
282
288
284
284
288
292
288
283
272
310
297
265
283
292
288
287
289
291
288
288
289
291
286
285
288
292
292
288
289
290
290
288
288
293
291
288
289
293
294
295
296
300
299
297
298
299
303
298
298
301
298
298
295
296
300
294
294
299
300
296
295
297
300
299
299
299
303
298
295
298
287
325
297
274
294
289
286
291
294
295
296
297
300
295
295
294
294
292
290
290
289
286
284
285
287
285
286
288
286
286
282
283
287
287
284
284
289
289
282
282
285
284
279
279
284
288
283
282
283
284
279
280
284
283
282
281
283
284
283
281
284
286
285
284
286
288
287
287
286
278
285
310
274
274
278
275
276
281
280
281
283
286
286
284
284
289
285
284
288
292
291
285
287
292
289
286
287
290
290
286
284
285
284
279
277
282
280
277
276
279
281
275
275
279
274
268
263
261
257
248
243
243
244
242
241
252
254
248
238
240
241
240
237
246
252
252
255
259
261
257
257
264
260
275
300
262
273
280
278
283
284
282
276
284
288
287
283
282
288
287
285
286
290
290
287
288
294
291
287
291
295
294
291
293
300
302
297
296
299
299
292
292
295
296
294
294
301
299
296
293
300
300
296
295
298
302
301
298
297
299
294
291
293
295
295
292
296
293
289
283
281
274
312
292
267
286
288
285
289
296
296
291
295
296
293
288
288
290
288
288
289
290
287
282
284
289
286
286
288
294
296
295
298
300
297
292
291
294
296
296
296
294
296
293
292
295
295
293
291
293
292
286
289
288
288
289
287
291
295
290
288
287
292
288
283
283
284
282
265
298
298
259
272
279
280
281
277
276
278
272
269
272
273
273
270
271
274
274
271
271
272
272
265
266
265
265
260
259
261
260
256
256
257
253
242
237
235
229
221
212
203
192
179
170
163
163
162
161
166
174
173
177
180
187
189
194
201
206
208
210
216
219
221
223
229
234
238
230
269
284
245
261
270
276
276
276
279
282
287
291
292
299
294
297
301
307
312
312
313
318
316
315
314
320
323
319
319
326
324
323
324
331
331
327
327
330
333
330
329
331
331
327
325
326
329
325
323
324
325
325
320
323
322
318
320
325
325
323
320
320
321
313
309
307
311
295
328
318
286
300
303
301
303
302
304
304
304
307
300
301
306
308
306
307
308
305
297
296
295
297
290
288
293
294
292
291
293
296
295
291
293
292
293
290
289
291
285
285
285
283
281
279
279
277
275
274
273
276
273
270
272
264
272
303
265
268
276
274
277
282
280
281
282
289
287
286
286
288
292
290
292
293
289
288
284
287
283
276
272
266
259
257
258
262
259
259
261
266
265
264
263
270
272
271
271
274
276
269
265
269
272
270
264
267
268
266
270
273
279
276
275
278
280
262
301
288
261
278
274
280
283
283
280
282
283
283
282
282
282
285
282
282
284
283
280
281
285
281
281
286
288
284
280
277
278
275
275
278
283
283
279
279
283
280
279
278
280
285
281
281
286
287
286
288
291
292
288
290
290
294
294
293
295
297
297
294
292
297
291
291
291
294
293
291
290
293
332
294
285
295
293
289
290
291
287
283
284
287
285
283
284
284
284
280
279
282
279
278
280
283
286
282
282
284
281
279
276
281
280
274
276
280
283
280
278
282
283
278
275
276
279
275
274
276
276
273
270
271
274
270
270
272
276
276
275
282
287
285
285
283
288
287
284
276
284
309
267
266
284
281
281
285
288
290
286
291
295
295
293
290
293
291
290
290
289
286
284
282
286
286
287
289
294
299
295
295
299
298
296
295
295
295
294
296
298
297
294
292
298
301
298
299
302
306
304
301
303
302
301
299
299
295
299
329
290
288
301
301
305
307
303
304
303
304
306
302
302
303
303
302
301
303
300
295
294
297
298
292
292
297
295
293
293
295
299
293
293
296
293
287
286
289
291
288
285
284
278
268
268
272
273
269
269
270
271
269
268
270
270
269
264
270
272
270
261
273
305
262
260
275
277
277
276
278
285
288
286
291
289
290
287
286
290
280
278
276
276
276
274
277
275
272
272
274
279
282
283
285
290
294
292
293
297
296
293
293
296
295
293
293
297
297
294
294
296
298
296
297
303
304
300
297
302
303
298
297
302
301
298
296
297
299
292
287
329
295
274
291
290
291
291
289
289
295
291
291
292
293
293
291
291
294
290
288
285
288
286
281
281
285
284
285
288
292
290
286
285
287
286
283
279
286
286
282
283
290
290
288
289
295
298
296
295
298
297
294
294
296
295
292
287
289
292
290
289
290
281
309
291
264
283
285
285
285
288
287
284
285
289
292
289
293
297
296
296
293
292
288
282
284
284
283
281
280
287
289
286
287
290
292
290
288
294
293
293
296
297
295
288
288
293
291
288
285
290
291
288
289
286
284
280
281
282
280
271
304
278
266
280
283
288
290
287
284
286
290
285
285
288
289
288
288
290
290
285
281
281
285
284
285
286
285
286
283
283
287
281
278
276
280
279
274
275
278
274
274
277
280
284
283
282
283
286
285
283
285
279
302
288
267
286
285
286
291
294
291
288
290
294
288
289
292
295
295
292
292
291
286
284
285
288
288
285
286
290
286
283
284
290
288
284
285
289
286
286
288
290
290
289
290
292
292
288
291
297
298
294
291
299
297
292
294
287
310
300
272
292
292
289
291
296
295
290
292
296
299
299
298
302
307
308
309
308
303
298
294
298
299
293
294
294
299
296
294
297
299
294
294
296
298
291
292
291
294
295
291
294
301
299
297
294
296
292
289
289
292
288
288
291
293
291
284
285
284
275
298
287
267
282
284
283
285
286
280
283
287
286
284
281
282
285
282
282
282
282
278
278
281
282
281
280
279
282
279
281
283
282
281
280
282
285
284
282
282
284
284
281
283
285
282
282
281
284
283
282
284
285
285
284
286
290
289
285
284
288
290
291
290
294
292
286
287
292
284
311
297
272
285
284
284
290
290
288
285
288
292
289
286
291
293
290
292
295
297
290
285
288
289
286
283
286
291
288
289
292
296
296
292
296
297
298
295
295
298
299
297
298
300
301
297
297
302
300
299
301
300
300
298
296
296
291
288
286
288
287
283
283
286
284
281
281
279
301
301
270
287
296
296
297
297
295
292
288
288
290
285
287
289
293
284
281
280
280
276
276
277
281
281
278
282
285
281
281
281
286
283
277
281
285
282
277
278
278
277
274
272
280
282
280
282
286
285
281
280
285
283
281
283
290
292
293
294
302
303
297
296
296
298
294
294
297
293
293
311
288
286
293
289
291
290
291
288
289
288
285
288
290
298
295
294
295
296
293
291
289
292
290
291
291
293
290
287
287
293
288
284
285
289
291
287
290
292
292
291
291
298
298
299
302
306
305
299
297
302
299
297
299
304
305
301
301
304
300
297
295
298
294
288
275
306
305
271
280
290
291
292
290
293
298
294
293
294
294
294
294
296
297
293
292
292
294
292
288
289
291
290
290
290
295
293
291
294
296
294
293
293
298
294
291
292
295
293
289
289
295
293
291
291
290
291
286
284
289
290
287
285
286
288
284
284
283
285
281
278
280
272
284
300
272
279
280
281
280
280
281
275
281
283
281
282
282
284
285
287
293
290
286
287
287
290
286
283
282
282
277
273
274
278
279
277
277
280
282
281
282
285
284
284
281
284
283
283
283
285
285
284
285
290
288
286
284
287
287
285
287
293
296
293
290
290
290
286
280
290
312
280
277
295
296
297
294
296
302
298
295
299
301
299
298
298
301
297
297
299
302
297
295
294
297
297
294
292
295
295
295
296
297
296
291
288
293
289
288
286
290
287
285
285
289
288
286
287
294
296
292
292
292
289
289
288
291
292
289
288
286
288
286
284
289
282
305
290
268
287
286
284
285
284
285
280
284
289
288
288
290
295
294
290
290
294
290
283
279
281
278
273
273
277
279
278
278
282
278
278
279
284
285
281
280
285
287
287
286
291
293
288
289
292
290
291
287
293
293
289
287
285
288
285
288
294
298
297
298
302
302
297
295
296
300
288
310
306
278
287
290
288
293
291
288
290
296
293
293
297
300
297
293
292
295
295
293
290
294
293
290
290
292
294
290
289
295
296
292
289
291
291
288
290
292
294
289
290
294
294
291
291
293
293
292
290
294
292
289
288
289
290
286
284
282
282
284
284
288
291
285
285
281
280
305
281
270
289
288
285
284
288
284
281
283
285
285
283
288
291
289
289
290
291
289
285
284
286
285
285
284
288
290
288
289
291
295
293
292
298
297
296
295
298
300
297
296
297
297
294
292
295
297
295
294
295
298
292
291
295
297
297
299
296
298
295
290
291
293
290
288
279
310
309
279
289
297
295
294
296
299
293
294
294
300
301
296
296
296
295
291
286
289
286
284
286
288
288
287
288
294
294
291
289
294
295
290
289
289
290
288
285
286
288
288
289
290
292
290
285
289
290
288
286
286
288
286
282
286
287
282
281
284
285
280
280
278
282
281
278
282
276
303
293
263
283
286
285
288
291
290
289
288
292
290
286
287
288
290
288
289
294
292
290
293
296
295
289
288
291
292
291
289
292
292
293
291
294
298
295
293
298
298
296
293
292
295
292
292
294
300
303
301
308
314
314
313
314
316
313
310
312
312
311
309
304
305
301
299
299
292
309
316
282
290
298
293
292
295
296
293
291
291
289
283
277
277
277
279
278
281
281
276
272
277
279
280
279
282
283
279
278
281
283
283
280
282
283
279
277
281
282
282
281
284
289
287
285
283
285
283
279
281
284
282
279
280
285
281
281
285
288
284
280
281
285
281
275
304
286
269
278
279
287
286
287
285
290
291
287
290
292
294
292
291
296
298
294
291
292
293
290
287
290
295
292
287
290
293
291
296
293
295
292
287
288
288
284
284
286
288
287
286
288
288
288
286
286
290
287
285
288
289
289
284
289
292
288
288
285
290
282
281
309
282
279
288
286
292
297
292
290
295
299
294
293
294
295
291
291
294
295
289
288
291
293
289
286
288
288
283
282
282
287
286
283
287
287
286
285
285
289
286
285
287
290
291
290
291
296
295
294
294
297
296
293
293
294
296
295
290
295
296
294
296
292
292
289
285
291
279
303
290
264
282
282
283
284
285
281
277
281
283
282
280
284
284
284
284
284
286
284
282
282
285
282
281
282
283
283
284
287
293
292
296
301
308
310
311
317
323
320
320
320
325
322
317
317
319
316
314
312
312
310
309
308
309
306
301
298
299
297
297
293
295
295
289
288
295
284
312
295
269
285
284
285
286
287
284
282
286
286
285
282
280
283
282
283
287
284
282
280
285
284
281
280
282
287
281
276
279
286
284
282
284
286
283
282
285
288
285
282
281
286
287
284
281
284
285
282
282
285
286
280
274
279
279
277
283
289
290
284
278
282
282
278
276
276
306
283
266
285
287
287
284
288
293
286
288
293
296
292
292
293
296
290
288
289
290
286
285
288
290
287
285
285
294
292
289
290
286
283
281
285
288
286
285
282
285
284
282
285
291
292
289
288
293
293
293
293
292
295
295
293
298
300
296
292
295
298
293
290
282
304
309
276
290
301
296
294
293
296
295
292
295
294
290
291
292
298
297
298
296
295
290
286
287
290
286
284
284
285
285
283
285
288
289
289
290
291
292
288
290
292
289
289
289
293
292
289
289
294
298
292
292
296
297
293
292
292
295
292
288
286
288
282
280
282
283
282
280
275
301
302
269
283
290
285
282
283
289
287
285
287
288
287
286
286
292
291
290
287
289
287
283
283
283
281
282
280
286
287
284
286
290
289
286
287
293
294
289
293
292
296
295
292
299
298
296
296
298
300
296
294
297
299
294
292
293
292
292
289
287
291
290
288
292
293
291
284
284
290
286
283
275
304
288
258
274
278
275
276
278
282
284
282
281
286
289
288
291
298
296
295
293
293
291
286
288
293
293
286
284
286
291
288
290
297
295
293
292
298
301
298
293
294
295
291
288
292
291
291
288
291
293
288
285
286
287
286
286
287
292
291
288
287
287
283
282
287
294
292
292
293
296
297
290
289
325
297
278
293
297
296
292
294
297
297
295
298
301
301
300
299
303
303
298
298
299
298
292
288
290
290
285
290
294
298
296
295
300
300
296
292
293
294
289
288
286
292
289
286
286
290
286
287
292
297
297
289
288
291
289
288
288
292
291
289
289
289
291
288
289
293
291
289
277
308
294
267
283
290
289
286
286
291
293
291
292
296
295
292
289
292
289
287
285
285
286
283
281
286
283
283
284
288
290
283
282
284
283
285
280
284
288
286
283
285
289
292
287
289
289
285
284
283
285
281
277
278
277
277
300
277
272
282
282
280
285
285
282
281
285
285
284
286
294
297
296
295
295
295
293
294
299
297
297
296
298
305
301
299
302
300
298
298
300
302
300
297
298
299
296
292
293
297
293
291
293
297
293
289
290
292
283
300
306
279
288
294
295
298
296
292
295
298
295
293
293
294
296
291
292
295
293
292
290
295
292
290
291
297
296
292
294
299
296
296
292
292
295
289
288
294
292
292
288
291
294
290
290
289
291
288
287
291
293
289
288
290
294
289
285
286
288
287
284
286
292
292
293
297
300
297
290
291
292
290
282
288
312
277
273
287
289
287
282
276
276
271
268
270
272
274
269
271
279
279
279
278
284
284
280
281
281
282
282
280
285
285
285
285
288
294
