536
512
506
522
516
493
497
514
497
475
478
489
469
454
467
473
454
443
461
461
440
435
456
452
431
431
449
441
423
432
451
438
422
437
451
436
436
474
498
489
478
483
459
423
418
444
442
424
429
449
437
420
434
450
433
420
440
451
432
422
447
453
432
427
450
449
429
432
454
443
424
437
452
435
410
415
420
398
383
406
415
397
391
417
420
401
402
427
421
399
407
429
417
402
420
437
424
414
437
450
436
431
456
461
445
446
472
472
457
465
489
481
466
479
498
485
474
492
504
487
479
500
504
487
484
505
504
486
489
512
506
490
500
521
511
499
516
529
514
505
524
531
513
507
530
532
514
512
534
529
507
509
529
516
496
505
521
505
491
506
516
499
488
507
514
502
511
548
558
543
534
529
498
475
482
499
488
475
489
498
480
471
490
495
475
470
488
487
465
464
483
475
457
463
482
471
455
466
480
466
456
474
487
472
465
484
490
474
471
492
490
473
476
495
487
469
476
490
477
463
478
491
476
465
485
493
476
470
490
491
473
474
495
488
470
478
497
487
472
483
496
480
467
483
491
472
465
486
489
471
469
492
491
475
480
501
492
475
483
499
483
468
481
492
476
466
484
487
468
462
484
485
466
465
484
480
462
467
484
471
455
468
482
465
451
470
479
461
453
477
487
482
495
530
530
499
480
484
470
454
468
489
479
467
483
496
483
475
494
499
483
482
505
506
491
495
516
509
494
505
525
515
502
518
534
522
512
531
542
526
519
540
544
526
523
543
539
520
522
540
531
514
521
535
520
506
521
530
513
503
522
526
507
502
522
522
504
503
521
515
497
505
521
508
494
506
519
504
491
508
515
496
487
507
510
491
490
510
507
490
493
512
503
489
499
514
500
487
502
514
497
489
511
516
498
494
516
516
497
498
519
512
496
503
522
509
495
510
525
510
498
517
523
503
495
514
516
498
497
516
512
495
501
519
510
503
528
559
560
550
553
536
498
479
496
502
486
483
505
502
484
488
509
503
486
496
516
503
489
506
521
506
497
519
526
506
499
521
523
505
505
529
524
506
512
533
524
508
519
535
521
506
520
529
511
500
516
519
500
496
516
514
497
499
518
511
496
504
520
510
497
510
523
508
499
516
522
505
500
521
522
504
506
526
521
504
511
529
518
502
513
528
515
502
517
526
509
500
517
519
503
500
520
517
501
503
521
511
495
503
518
502
489
503
513
497
488
506
512
495
490
510
509
492
493
514
507
490
498
517
506
492
504
518
506
495
510
520
506
502
522
527
511
510
529
526
509
512
530
521
507
517
532
521
508
520
530
514
507
532
551
552
562
583
567
525
505
512
504
491
496
510
498
481
491
501
486
474
487
494
478
471
489
491
478
479
498
494
478
484
501
494
480
490
504
494
485
499
511
497
491
508
512
495
492
511
508
488
488
504
497
478
482
495
481
468
475
487
473
462
479
488
474
468
486
486
472
470
489
486
470
476
495
487
473
483
498
487
476
491
502
488
481
499
504
487
481
498
495
478
479
497
492
478
486
501
491
478
490
502
489
479
492
498
483
478
492
491
474
473
490
487
472
475
491
485
472
480
493
483
474
488
497
483
477
494
498
484
480
497
491
477
477
490
483
471
479
494
485
476
490
501
490
482
499
508
496
491
507
508
493
492
506
500
487
494
510
503
491
503
517
506
498
516
536
539
549
577
581
554
532
536
531
519
524
542
537
525
531
544
532
522
532
544
533
524
536
542
526
523
539
539
523
521
537
533
520
525
539
530
521
531
542
531
522
536
544
531
524
538
541
525
521
534
529
513
514
529
520
504
510
525
516
507
518
527
515
506
520
525
508
502
515
514
500
500
516
511
497
502
516
507
494
501
512
501
491
503
509
496
492
507
508
493
492
508
505
491
491
505
500
486
492
504
492
482
495
500
485
478
492
494
481
479
496
498
486
487
504
500
486
491
505
498
488
498
511
500
494
508
515
501
494
509
512
496
493
506
504
492
495
510
502
490
497
510
507
511
540
561
548
527
520
508
490
487
504
508
496
498
514
507
495
502
518
509
497
508
522
513
506
520
525
515
512
529
531
517
518
537
536
523
527
543
533
518
522
532
520
509
520
529
517
508
522
526
510
506
519
517
502
503
517
510
498
503
515
504
493
503
513
501
491
505
513
499
494
510
513
498
497
512
508
494
498
511
504
493
503
516
504
494
510
518
503
496
512
516
500
497
512
509
494
494
509
502
487
494
510
498
484
497
508
493
483
499
506
490
484
505
506
490
490
511
509
493
499
517
506
491
502
517
502
489
506
518
500
490
510
518
501
497
517
515
498
501
520
511
494
502
518
505
492
506
519
503
491
512
527
522
531
565
572
542
520
520
505
487
495
516
506
491
502
516
501
486
504
516
499
491
511
516
498
494
514
510
493
496
516
506
490
501
520
508
494
510
524
510
500
518
524
504
497
515
514
496
495
514
506
487
492
508
496
483
495
510
495
485
504
516
501
493
513
516
499
497
516
511
492
496
516
507
490
496
514
502
488
500
511
495
485
504
509
490
484
505
505
484
483
501
495
476
481
498
488
473
486
501
485
474
492
500
484
477
499
502
484
483
504
502
485
489
508
498
483
495
513
499
486
501
513
497
488
506
512
495
491
512
511
492
494
515
507
491
498
515
505
491
503
515
500
490
508
517
499
491
510
511
493
488
507
502
487
493
513
503
485
496
512
502
498
529
558
556
548
552
534
498
490
511
514
499
501
519
512
497
505
523
510
495
509
523
509
498
516
522
507
501
521
522
503
504
528
526
511
518
538
531
517
530
546
535
523
538
548
532
523
538
540
517
510
529
525
505
505
523
513
494
501
519
508
494
507
520
506
496
516
524
507
501
522
522
504
498
516
505
481
485
503
493
477
487
503
491
477
494
502
483
476
498
504
487
484
502
499
476
474
492
482
466
477
497
485
473
489
504
489
480
499
505
487
483
508
510
494
497
521
519
504
512
532
526
513
527
541
525
516
532
538
521
513
534
538
522
522
544
541
525
530
550
542
531
545
576
570
553
553
542
503
483
501
507
491
486
508
507
488
491
513
507
490
499
520
509
495
508
523
508
496
517
527
511
505
527
534
520
523
546
544
531
538
558
549
534
544
559
544
528
541
549
530
518
533
535
515
508
526
522
502
502
522
515
496
502
519
508
494
505
518
503
491
507
515
497
489
510
512
492
489
511
507
491
495
516
505
489
499
516
501
486
501
515
498
488
508
512
493
490
511
509
490
490
509
501
485
492
509
494
477
487
501
484
471
488
496
477
470
490
492
473
472
495
493
474
479
500
492
477
487
504
489
475
491
500
481
470
490
493
474
470
491
489
469
471
497
498
495
517
547
534
503
495
491
469
459
479
488
471
462
481
481
464
465
487
482
464
469
490
482
466
479
496
482
469
488
501
485
477
497
500
483
480
503
501
484
489
511
505
489
497
517
506
490
503
516
498
485
503
510
490
481
500
500
480
480
501
495
478
484
504
494
477
489
506
496
486
505
521
505
499
524
529
511
510
535
534
517
520
541
532
514
523
542
529
514
528
541
524
513
533
539
520
514
534
536
517
518
538
532
513
520
539
526
509
521
535
521
509
527
535
517
508
529
533
515
513
535
531
513
516
538
530
512
521
539
526
512
525
533
515
502
519
523
502
495
518
517
496
496
524
531
530
553
576
552
516
508
513
495
486
506
516
497
489
509
511
493
494
517
513
495
498
520
513
497
508
526
514
499
516
529
512
502
522
529
511
507
529
529
511
511
534
528
509
515
533
519
501
513
526
507
492
507
516
498
490
511
514
493
490
511
506
488
492
511
500
481
493
510
494
479
494
504
486
475
495
500
480
476
499
497
475
471
489
477
459
466
486
476
461
476
491
475
466
486
494
476
471
495
498
479
478
498
494
477
482
502
493
475
488
506
493
480
497
509
494
486
508
513
494
490
514
512
493
497
520
514
497
507
528
515
499
515
531
515
503
521
527
506
500
522
522
502
500
523
518
498
506
531
532
533
561
583
557
522
518
519
503
497
520
524
503
499
522
521
501
502
522
513
493
503
521
508
492
507
519
502
492
512
520
502
496
518
521
505
507
530
525
506
512
533
524
507
519
534
518
501
517
524
502
489
506
506
486
481
503
501
481
484
505
497
480
488
504
488
472
486
499
483
474
496
505
486
480
501
500
481
482
502
495
476
481
499
487
471
483
497
479
464
480
489
470
462
483
485
465
462
482
478
460
463
482
472
455
464
480
467
453
468
480
463
453
473
479
461
456
478
477
459
461
483
478
461
469
488
479
464
478
494
480
469
488
498
480
471
490
492
472
469
492
487
468
472
493
484
469
486
515
519
524
552
558
521
486
492
493
475
473
496
495
477
478
499
492
473
481
498
485
469
484
500
486
475
493
501
484
480
503
507
489
487
509
506
488
495
516
507
493
507
525
512
498
515
525
507
496
514
517
496
491
513
509
488
489
510
501
484
493
513
500
485
499
515
500
490
509
518
499
495
518
520
501
501
524
520
503
509
529
519
502
516
534
521
508
526
537
523
515
537
542
524
521
543
541
523
525
545
537
518
526
544
532
518
532
545
527
516
535
543
522
514
533
533
515
515
538
533
516
522
541
529
512
524
538
521
505
522
532
514
505
527
529
509
501
522
516
498
512
548
556
545
542
535
498
475
491
508
495
487
508
517
500
495
518
518
499
501
525
521
503
510
530
521
504
517
533
519
507
527
538
522
514
536
539
522
520
543
541
522
525
545
536
519
525
538
520
503
516
525
505
491
507
512
492
485
506
504
485
485
505
498
481
488
507
496
482
497
514
501
489
508
519
502
495
516
521
503
505
528
526
508
512
531
522
505
514
530
516
503
521
532
514
503
523
530
511
506
528
527
509
510
533
527
510
518
536
526
513
527
543
530
519
537
546
530
522
540
539
516
510
531
525
504
507
526
515
498
508
525
512
508
541
568
556
537
534
515
485
478
498
498
470
459
486
496
490
502
516
498
480
492
504
486
472
488
493
473
467
487
488
468
467
487
483
465
471
490
478
460
471
490
477
464
480
490
469
459
480
484
461
454
473
470
449
449
466
450
428
445
468
454
435
447
460
444
432
450
456
437
430
452
453
435
435
456
448
429
436
457
447
430
443
460
447
436
455
467
450
440
461
464
445
444
464
462
447
455
478
471
453
462
481
470
458
471
484
472
464
485
496
480
473
493
490
471
469
488
479
460
465
483
471
454
463
476
464
458
488
514
512
508
517
496
458
447
470
471
453
456
475
465
450
460
478
467
456
472
484
467
459
479
486
471
469
490
490
477
482
505
501
485
493
512
506
492
503
522
514
504
521
531
514
506
524
527
509
505
522
518
501
505
522
513
496
504
521
510
498
511
523
506
497
514
522
504
498
515
512
498
502
520
513
497
503
521
513
500
509
520
509
503
518
526
514
510
523
526
513
513
526
523
510
514
529
524
515
522
532
522
514
525
530
516
510
520
518
498
487
494
488
472
473
484
481
472
480
495
490
483
492
500
493
494
517
539
546
555
562
544
512
501
509
510
502
509
521
516
507
514
522
515
508
517
524
514
509
521
524
513
512
522
520
510
514
526
521
512
518
529
523
516
527
535
527
525
536
540
529
525
535
534
521
520
527
521
507
510
519
511
501
505
513
506
499
507
512
502
498
509
510
493
485
491
483
470
473
481
477
473
481
493
490
488
500
509
501
499
510
515
507
507
520
522
513
515
525
526
518
525
535
532
526
534
542
533
528
537
543
533
530
539
542
533
533
542
541
530
534
544
538
529
535
543
535
528
534
537
528
523
529
530
519
518
527
527
515
515
524
521
516
530
552
563
568
571
558
527
506
511
514
505
502
510
512
500
501
512
513
504
506
516
512
506
511
519
512
507
515
524
516
511
520
524
517
519
530
532
524
528
538
536
528
532
536
527
518
524
528
518
511
517
519
508
504
510
509
498
495
503
505
496
496
502
499
492
499
506
498
492
499
503
495
491
499
502
492
491
499
498
488
491
499
496
486
489
496
490
484
490
495
488
483
490
493
486
485
494
498
490
490
499
497
488
491
498
492
484
488
494
487
480
487
492
482
478
486
489
481
481
489
487
479
481
485
481
472
476
481
477
471
478
483
477
467
470
470
466
476
495
504
491
473
457
441
433
439
452
452
449
458
469
466
464
474
479
473
472
482
485
478
481
490
490
483
486
497
497
492
498
505
502
498
507
515
511
512
522
528
521
520
525
523
513
514
521
517
506
508
512
506
498
501
505
500
495
502
506
500
497
505
508
499
499
505
502
492
495
501
497
491
496
502
496
490
495
497
489
483
487
490
480
479
486
486
477
478
485
484
475
476
480
472
464
471
479
474
470
477
482
473
472
481
481
471
471
480
480
472
474
481
477
470
475
482
477
472
479
484
477
477
487
491
483
482
489
488
477
476
481
479
470
474
481
476
469
475
481
475
476
494
514
521
527
527
507
475
464
469
468
462
467
475
472
465
471
477
471
466
474
479
473
472
481
484
477
479
489
490
483
487
495
493
488
493
502
500
496
503
510
505
501
509
513
504
503
511
511
501
500
505
501
490
491
497
492
485
490
497
492
488
496
500
493
493
501
504
496
497
504
505
498
500
506
504
497
502
510
506
500
507
513
505
502
508
512
504
504
513
516
508
509
517
515
506
508
514
509
503
508
513
508
504
511
516
509
509
515
517
509
509
516
516
508
512
519
516
508
512
517
510
504
509
512
505
503
511
514
506
507
514
516
509
511
520
520
514
520
527
521
512
508
508
496
485
488
490
481
476
484
487
481
483
492
492
485
486
493
495
498
519
546
559
558
553
539
518
511
520
528
523
526
535
537
530
535
545
546
541
546
554
554
552
561
568
564
561
568
572
567
568
577
580
574
575
582
582
576
581
589
587
578
581
584
576
570
575
576
567
560
563
563
553
551
557
555
544
545
551
547
541
545
550
545
541
546
550
544
539
544
544
534
530
537
536
523
519
524
521
513
519
527
524
517
523
528
521
514
518
520
511
509
516
518
509
507
510
506
495
495
501
498
494
498
506
503
499
504
508
501
498
503
504
495
493
498
499
491
490
495
492
485
490
499
496
490
495
501
494
487
490
491
483
480
485
486
476
476
483
483
477
482
489
487
483
490
497
494
489
495
500
494
491
498
501
492
491
498
501
501
515
536
548
547
541
524
499
481
487
494
489
483
489
492
485
483
493
498
492
495
501
499
490
491
496
494
488
495
505
503
501
508
515
506
502
508
512
506
507
517
520
513
516
523
520
513
515
521
516
508
515
520
510
503
506
504
495
495
503
505
497
496
501
499
489
489
497
494
487
495
503
502
499
509
517
510
508
514
517
508
506
510
507
491
484
486
480
469
470
473
468
463
471
477
472
469
475
478
470
471
480
482
475
476
485
483
475
480
487
484
479
484
491
488
484
492
498
492
489
497
502
495
497
506
504
496
501
512
513
507
510
512
503
498
509
516
506
493
498
509
505
504
512
512
500
499
509
515
518
534
550
544
517
498
490
479
472
480
487
478
474
485
490
478
474
484
483
473
475
484
476
466
475
489
479
471
482
494
485
478
490
498
486
483
497
502
491
490
504
501
487
488
499
492
478
481
491
482
472
480
490
481
476
484
489
480
477
486
489
480
481
490
488
479
483
490
484
473
476
481
473
466
472
477
469
465
471
475
465
463
471
470
459
460
470
466
456
460
465
458
451
455
461
450
443
451
458
448
446
457
461
451
450
457
455
445
449
460
456
449
455
465
460
455
463
472
467
467
478
485
478
480
490
495
489
492
501
497
488
493
502
495
488
494
500
492
488
497
508
508
523
543
550
530
509
495
485
477
483
492
491
484
485
491
488
485
490
496
494
495
502
505
500
504
514
518
514
521
531
530
528
537
546
543
542
551
557
548
544
552
553
544
544
552
549
539
542
549
542
533
536
540
533
529
535
539
530
526
532
534
525
525
533
533
524
527
535
533
526
531
538
534
528
536
543
537
533
541
544
536
535
544
545
537
537
545
544
536
539
548
544
536
541
547
539
533
541
545
535
530
538
540
530
531
539
539
530
532
541
539
530
536
541
535
527
534
539
532
528
535
538
530
529
539
543
534
534
541
539
530
531
536
531
524
529
536
530
524
529
532
523
519
530
543
550
566
587
585
559
538
530
522
514
517
523
514
506
511
517
508
504
511
515
508
508
514
515
507
511
519
518
510
515
523
521
515
522
529
525
522
530
536
530
530
538
541
534
534
540
539
530
530
532
527
517
518
520
514
507
511
514
506
501
506
508
499
498
504
505
496
495
502
500
492
494
500
497
490
495
498
492
487
491
494
485
483
490
492
486
487
493
491
483
486
492
488
481
486
492
486
481
487
490
480
478
483
483
476
474
481
483
475
476
479
475
465
466
470
466
459
465
471
467
464
469
474
468
467
475
479
472
474
482
483
476
481
486
483
476
480
484
477
472
476
479
474
473
479
482
476
484
504
522
531
541
541
518
487
477
479
477
472
476
480
474
472
480
482
477
476
484
487
481
481
485
484
476
478
485
485
480
486
493
492
492
499
507
503
503
512
517
512
514
520
520
512
515
518
514
505
506
509
504
499
503
507
503
498
502
501
491
486
490
490
483
485
492
491
486
488
493
491
486
492
497
494
490
496
501
496
495
501
503
494
493
496
494
488
490
495
492
485
489
494
492
487
494
497
491
489
495
496
489
490
496
499
489
490
494
491
484
486
493
492
487
494
498
494
487
493
498
490
490
498
500
492
489
490
486
477
482
488
486
484
490
498
493
488
498
513
521
533
542
533
507
488
489
491
485
489
494
495
488
491
499
497
493
499
503
499
498
504
507
500
499
504
505
498
500
508
509
505
509
517
516
510
518
522
517
514
521
521
512
506
507
505
494
488
488
486
477
479
483
484
482
490
498
499
496
501
507
504
502
507
511
504
502
505
504
495
492
493
489
479
480
483
481
474
479
486
482
477
484
487
483
482
489
493
488
491
498
500
495
499
506
506
499
502
507
501
494
494
493
485
480
481
482
475
474
479
479
471
472
479
480
473
477
482
482
477
485
491
490
489
500
507
506
507
514
517
510
511
517
518
511
514
518
516
510
512
515
509
506
519
537
550
560
564
551
523
505
504
506
502
506
511
510
502
503
508
507
502
508
514
511
509
514
518
511
510
517
520
516
517
524
527
521
523
531
530
523
529
532
528
521
524
525
519
515
519
520
514
511
517
519
511
511
516
514
505
506
510
506
498
500
502
496
490
492
494
486
483
486
487
480
481
485
485
478
481
486
484
479
485
491
489
486
491
495
491
489
494
496
490
492
500
503
497
501
506
507
503
508
513
510
506
509
512
505
503
507
510
502
502
506
507
501
502
506
505
499
503
508
507
503
506
510
503
497
497
497
491
490
496
499
493
491
496
497
490
492
499
499
493
497
504
501
497
501
504
499
497
502
504
496
493
493
491
480
481
487
491
485
490
499
499
493
497
502
498
494
500
505
497
493
500
502
495
500
512
524
530
543
545
525
498
485
486
485
484
492
498
493
489
493
494
487
487
493
495
488
490
495
495
488
491
498
498
494
501
507
503
501
507
513
510
512
520
525
519
522
530
532
528
532
537
536
530
534
537
533
528
530
531
524
519
520
521
510
505
507
508
501
504
509
507
501
505
508
507
502
507
511
508
502
506
508
502
500
506
509
505
507
514
517
513
516
522
522
516
519
524
522
519
523
526
521
519
522
525
519
517
522
524
517
517
522
521
513
517
522
520
515
521
523
519
514
518
518
510
506
511
513
506
506
511
510
505
508
513
512
506
511
517
512
509
513
518
515
514
519
520
513
510
513
511
503
505
507
505
498
501
506
505
502
512
529
543
555
565
558
533
511
507
510
508
514
524
529
525
530
535
535
530
536
544
542
540
545
550
544
543
547
549
542
540
544
544
537
539
543
542
536
540
544
540
535
537
539
532
526
529
529
520
516
518
515
503
500
504
501
493
495
496
493
487
490
495
491
486
490
493
486
482
487
488
480
479
483
484
476
476
481
482
471
475
478
473
466
473
479
474
472
476
479
472
470
473
475
466
466
468
465
456
458
462
459
452
456
460
455
452
458
463
460
459
465
469
466
472
480
486
485
492
502
501
497
502
505
502
496
500
501
496
493
498
500
496
498
506
510
504
508
514
513
507
509
514
512
508
511
516
510
509
523
541
550
560
564
550
522
506
504
504
499
502
506
504
497
500
505
503
498
504
507
503
501
506
508
502
502
507
509
502
503
507
507
501
505
510
508
503
509
516
513
512
520
525
520
518
523
525
518
519
520
517
506
506
510
509
504
507
510
506
502
507
511
505
501
504
506
498
497
503
504
498
500
505
504
498
501
504
500
493
492
490
481
474
476
477
470
470
476
480
474
475
483
486
482
484
489
486
480
482
488
485
482
486
490
484
481
482
484
477
476
482
483
476
476
482
481
475
478
485
483
479
485
490
486
483
488
492
486
485
491
491
485
486
492
492
486
489
494
493
487
490
496
493
491
497
501
498
498
506
509
502
501
504
504
497
499
503
504
506
525
548
561
564
560
544
518
506
510
515
509
509
513
514
509
511
521
523
519
523
528
526
520
523
526
522
518
522
526
521
520
527
530
526
527
533
534
528
532
537
536
531
533
536
532
525
527
531
526
524
529
533
527
527
531
532
523
524
526
524
516
521
525
524
519
525
528
523
518
523
525
518
516
521
523
518
519
524
525
517
519
521
519
513
516
519
515
511
514
520
517
516
521
523
516
514
519
519
511
512
519
519
513
516
518
514
508
511
514
508
505
508
510
504
503
508
509
502
502
507
507
500
502
506
504
499
501
506
505
503
510
516
515
514
519
521
513
509
511
512
505
506
511
510
502
506
510
508
503
509
515
510
507
510
513
505
503
505
505
496
492
491
488
482
483
489
487
487
502
521
532
536
538
526
500
484
484
489
487
490
496
499
496
502
508
510
507
513
521
521
519
526
534
531
531
539
544
540
541
547
550
546
551
559
561
556
560
567
567
562
565
568
563
559
563
564
559
557
559
561
554
552
554
555
546
547
551
549
542
544
547
542
534
535
535
526
516
516
515
503
497
500
503
497
497
502
502
496
503
507
507
501
504
506
501
498
502
505
501
499
504
507
500
499
501
502
495
497
500
499
493
499
503
500
495
501
507
503
501
507
512
509
510
517
521
517
521
530
531
526
528
531
529
524
528
533
528
523
528
532
527
526
529
530
526
528
533
534
527
530
535
537
531
535
541
539
536
541
544
540
538
541
545
540
540
544
546
541
542
543
542
532
535
543
554
563
579
587
571
546
529
521
513
512
518
520
513
510
514
515
509
514
519
517
512
513
516
506
498
497
496
488
484
490
492
488
496
504
509
507
511
519
520
516
519
522
520
513
519
522
518
514
517
517
505
503
504
504
495
495
498
496
488
492
496
494
487
489
491
484
477
479
479
471
466
467
466
458
456
460
460
451
449
451
448
440
441
443
440
436
442
445
441
437
441
444
439
438
443
444
438
438
442
441
434
436
441
440
434
438
442
440
436
440
443
439
437
442
445
438
439
445
446
440
442
447
445
439
444
449
448
444
450
454
450
443
443
442
430
428
430
430
422
420
422
419
410
414
419
419
414
419
420
416
418
434
456
467
476
477
461
433
423
426
430
427
432
439
442
439
444
450
449
449
457
464
464
466
475
481
479
481
490
496
492
494
500
502
500
507
514
515
513
523
531
534
543
548
558
560
557
563
565
559
558
562
561
552
551
557
554
545
547
553
549
545
551
556
550
546
553
555
548
549
555
557
549
549
553
552
541
544
549
546
539
541
547
538
529
535
538
526
519
525
528
515
512
518
519
509
509
515
512
502
505
513
506
495
502
508
501
498
508
518
515
517
529
536
527
527
535
536
527
530
538
537
528
531
537
533
528
532
537
530
524
528
534
526
525
531
534
526
526
532
531
523
524
530
528
520
523
530
524
519
524
533
537
550
569
576
556
535
519
512
505
510
517
516
506
507
511
506
500
504
508
500
496
502
507
498
496
501
504
496
497
503
505
497
500
509
508
502
506
514
510
507
511
516
508
504
509
514
504
503
508
511
502
501
506
503
494
495
501
499
493
497
505
501
499
504
509
501
499
503
508
501
507
515
519
511
512
520
520
514
517
523
515
507
507
509
500
496
497
501
494
495
499
503
497
501
506
506
500
504
509
507
502
506
513
509
508
513
519
513
513
518
523
514
515
522
524
516
520
530
528
525
531
539
533
527
531
538
531
528
534
539
531
533
542
546
538
537
541
540
530
529
533
530
525
526
533
528
524
530
547
554
570
590
590
560
534
527
524
517
521
530
526
516
518
526
517
508
508
510
499
494
500
502
491
489
492
492
482
481
486
485
476
482
493
489
486
495
504
497
494
504
509
498
498
508
508
494
493
504
499
486
491
503
493
483
489
496
483
475
485
491
477
473
484
484
467
467
480
479
466
470
483
479
468
476
489
480
472
482
489
478
473
485
488
475
474
487
488
475
478
492
490
481
488
500
493
483
492
503
492
486
500
509
494
490
503
504
487
486
500
495
482
490
503
496
487
497
511
503
496
514
527
514
508
529
537
522
521
542
541
524
529
551
545
527
536
554
544
533
552
581
587
590
618
617
577
545
550
546
526
527
550
544
525
529
549
539
521
532
546
531
516
531
540
521
510
531
534
514
510
533
529
509
513
533
525
505
514
528
514
496
510
519
498
485
502
506
484
475
494
492
470
466
483
474
454
459
476
463
442
452
466
450
435
451
460
442
432
454
456
434
428
448
445
426
430
451
444
425
436
456
446
432
449
463
448
438
459
468
449
444
467
466
445
443
463
456
436
441
459
448
432
448
465
453
438
457
467
450
441
462
464
444
442
464
460
442
447
465
455
438
451
473
472
473
503
520
494
462
463
461
441
438
459
458
445
451
475
469
452
463
485
476
461
478
496
484
473
495
505
488
479
501
502
481
476
498
494
475
481
505
499
481
493
513
500
485
503
517
500
487
504
505
484
476
497
496
473
471
492
486
467
474
493
482
464
479
494
479
466
485
494
476
466
488
492
474
471
494
493
473
477
499
491
472
484
501
488
473
494
509
494
483
505
510
489
482
505
504
485
487
510
504
486
495
516
507
492
509
526
511
497
515
523
503
491
513
515
494
491
513
508
486
488
507
500
491
519
554
555
537
537
526
492
474
496
503
485
478
501
500
481
482
505
501
482
490
511
501
483
497
512
496
482
502
509
491
483
507
508
489
487
508
504
487
492
513
503
485
495
511
496
480
495
503
482
468
487
491
470
463
484
484
462
463
485
479
460
468
487
476
460
474
488
474
463
482
490
471
463
484
487
469
468
490
487
468
473
493
484
466
478
492
476
460
477
487
471
460
481
486
467
461
482
480
461
462
482
475
456
465
484
473
458
472
486
470
457
478
488
470
463
486
488
468
466
487
482
462
468
489
482
466
480
498
485
471
493
514
514
522
557
560
523
495
502
496
476
480
502
494
474
483
501
489
471
487
503
487
476
495
502
483
477
499
502
485
486
510
508
491
501
522
513
497
512
528
514
499
518
528
511
500
520
523
503
498
520
515
493
494
513
505
483
491
507
493
476
488
501
484
470
489
495
475
467
489
491
472
473
496
491
472
478
499
490
473
488
504
490
476
495
507
492
484
509
513
494
491
514
512
492
498
519
512
495
506
525
515
499
517
530
516
505
526
531
512
505
528
526
505
504
525
519
498
507
528
518
502
517
535
520
506
526
537
520
512
535
538
517
513
536
534
513
517
539
531
513
526
548
546
545
576
591
564
532
537
538
520
516
542
542
524
526
548
541
520
527
545
535
519
534
550
537
525
546
557
540
533
557
560
542
541
565
563
545
551
573
565
546
557
576
563
548
565
574
557
544
562
564
542
532
550
548
526
525
546
541
522
530
550
537
516
528
542
527
513
533
544
528
521
544
545
524
517
538
533
513
518
537
527
506
517
535
522
506
524
535
517
506
528
534
515
509
530
526
505
505
526
519
500
506
523
511
494
506
519
503
490
508
515
496
488
508
510
489
486
507
501
481
487
508
498
480
490
503
490
473
490
501
485
475
495
502
485
482
504
500
477
475
496
489
471
479
504
503
503
537
565
547
515
512
503
476
467
488
485
460
452
470
460
436
438
460
449
433
448
467
458
445
467
476
456
446
469
474
456
455
482
485
470
480
512
517
508
525
548
543
529
546
559
543
529
551
556
535
524
543
540
518
516
538
533
514
522
540
529
509
520
535
520
505
524
534
516
507
530
536
519
516
538
536
516
520
543
537
520
530
547
533
517
534
550
536
525
547
555
537
529
551
552
533
533
556
550
531
539
558
546
528
539
552
539
525
542
552
535
525
545
548
528
523
545
542
522
525
545
536
517
527
542
528
510
524
536
519
505
524
528
508
501
520
518
495
495
514
506
486
491
508
498
479
491
505
491
477
495
503
483
470
489
492
472
468
488
485
465
469
489
481
461
471
488
474
456
471
482
466
453
473
477
458
450
470
471
460
473
512
525
514
512
510
478
450
461
476
462
447
465
473
456
447
469
473
455
453
476
474
455
458
475
464
443
453
469
456
441
459
471
456
447
469
477
460
456
478
479
460
461
483
478
459
465
482
469
448
460
471
454
439
455
462
443
433
455
458
439
437
460
456
437
442
463
455
439
451
468
456
443
461
471
454
443
465
471
453
448
472
471
453
457
479
474
456
463
482
472
455
471
485
471
458
477
485
466
457
480
482
462
461
484
481
462
467
489
481
463
475
492
481
467
487
499
484
474
496
501
483
479
502
500
480
483
503
496
476
485
503
492
476
491
506
492
480
500
508
489
478
498
498
478
475
496
491
473
479
498
489
472
485
500
486
470
486
497
482
472
495
502
485
481
505
503
483
487
509
501
483
493
511
500
484
500
519
515
520
557
577
556
530
527
513
490
490
515
512
493
499
520
510
494
507
523
508
496
518
531
515
506
528
531
511
508
531
530
511
516
537
530
514
526
545
533
518
536
548
533
523
545
553
535
529
550
549
528
526
547
542
523
530
547
536
518
531
545
532
520
540
550
530
519
538
540
520
515
538
535
514
517
538
531
513
522
540
528
508
524
534
517
504
526
533
515
508
531
531
511
512
535
530
512
519
539
530
513
528
544
529
514
532
540
522
513
535
538
519
515
536
533
513
516
535
528
508
517
532
517
499
516
528
510
499
521
528
510
506
529
529
509
510
531
525
506
514
534
523
506
522
537
522
509
528
536
518
510
532
534
515
513
535
532
513
517
535
530
521
547
578
575
554
551
541
514
502
522
530
511
505
525
524
504
505
525
519
499
506
524
513
494
506
519
504
491
509
518
502
495
519
523
507
507
530
528
509
515
536
530
513
525
542
529
510
524
530
508
492
509
510
488
479
499
496
475
476
498
492
476
487
507
496
479
495
510
497
484
503
509
492
483
504
504
483
481
501
497
478
484
503
494
476
488
504
491
477
495
505
489
479
498
501
480
473
495
494
472
472
482
466
439
439
452
434
411
425
437
423
413
435
446
430
425
454
459
442
446
471
470
456
468
493
488
474
492
514
502
493
518
532
520
516
541
549
536
537
566
571
555
563
589
585
569
581
601
590
575
591
605
588
576
597
606
586
579
603
602
586
597
636
648
643
651
656
621
587
594
609
596
585
604
613
596
588
608
611
592
588
608
606
589
591
611
604
587
600
618
610
596
614
628
614
602
623
631
613
606
626
626
607
607
628
621
600
605
622
609
588
597
605
588
573
588
592
572
559
576
577
556
550
567
561
540
541
557
546
526
532
546
533
515
528
536
518
504
522
526
507
499
519
518
499
499
518
513
492
497
513
504
486
497
508
492
476
493
500
482
471
491
491
469
464
485
480
460
463
481
473
454
464
478
464
448
464
475
460
448
466
472
455
450
471
470
451
451
473
467
449
455
473
462
446
460
474
459
444
461
469
450
440
461
462
445
444
465
461
443
448
467
457
437
446
461
447
432
447
459
444
434
453
459
445
449
486
506
507
519
533
507
466
463
479
471
457
472
486
472
459
479
487
471
463
485
487
468
465
484
479
459
464
482
471
453
462
477
465
453
471
481
467
460
481
487
470
467
489
490
474
478
500
495
475
481
495
484
468
483
497
483
471
489
496
481
473
495
497
481
479
498
494
475
477
493
482
464
475
491
478
463
479
488
471
461
480
483
463
456
476
471
450
447
465
456
435
442
459
448
433
447
459
446
435
455
463
448
442
466
469
453
453
476
473
457
465
486
479
466
481
498
489
479
498
510
496
490
511
516
499
495
517
516
497
499
520
514
496
505
522
510
493
507
517
501
489
506
511
491
484
503
502
482
479
498
492
473
479
497
489
473
486
496
480
464
483
498
488
481
490
468
425
408
426
426
409
413
436
428
411
425
442
431
417
433
447
433
424
447
456
444
442
469
475
458
465
491
492
479
492
519
514
501
524
543
534
525
547
561
546
540
568
572
555
556
582
579
563
569
589
583
567
578
595
584
569
585
599
584
574
597
605
586
582
605
604
584
585
606
600
585
594
611
601
586
598
612
602
589
606
615
600
590
610
610
592
590
611
607
585
590
608
597
576
585
600
585
568
584
595
579
567
586
592
573
566
584
580
560
556
573
567
548
555
574
565
552
565
578
562
545
560
565
548
541
561
561
540
534
550
543
522
520
534
521
499
508
521
508
492
505
513
495
486
512
532
532
541
560
543
503
492
507
501
484
490
505
494
478
490
501
488
474
489
494
474
463
480
480
459
455
472
465
443
445
461
452
434
444
458
445
429
446
456
440
429
447
450
432
429
449
448
430
430
447
440
420
425
439
428
410
423
433
416
402
420
426
410
402
421
421
401
399
420
417
397
400
418
410
395
409
425
413
398
415
426
415
406
426
428
411
410
435
436
423
428
450
447
434
445
465
459
446
463
478
467
456
474
481
465
457
477
477
458
455
472
465
447
451
468
459
442
453
467
454
435
445
447
426
412
430
430
412
409
431
431
413
416
439
433
417
428
446
439
428
449
463
450
439
457
464
450
448
472
475
460
465
494
504
504
529
554
537
497
488
490
474
460
478
487
472
465
487
492
476
474
496
495
479
484
505
500
485
495
511
499
481
496
507
493
481
501
507
489
482
503
503
485
487
509
504
485
493
511
503
488
501
516
503
489
506
515
498
489
510
514
497
495
515
513
494
498
519
512
496
505
520
508
491
510
518
502
488
506
511
493
489
513
513
498
497
513
504
483
489
506
496
480
494
506
494
484
499
509
489
473
488
486
465
459
476
472
453
456
475
467
450
461
477
465
453
472
483
470
463
485
491
477
474
498
500
486
491
513
508
494
505
526
517
504
521
535
522
512
536
546
530
525
552
558
542
543
568
568
552
558
579
573
557
569
585
574
561
579
590
574
567
599
622
622
632
653
635
595
583
599
596
582
592
610
601
584
598
610
595
580
597
601
583
572
590
590
570
567
585
578
557
560
577
567
549
559
573
561
547
562
571
554
542
559
560
541
533
552
548
529
528
544
535
514
519
533
521
502
513
523
508
492
509
515
496
487
506
503
482
478
496
488
468
472
489
481
464
476
490
478
465
481
490
472
461
478
480
463
461
482
479
460
463
484
479
460
469
486
477
464
483
497
486
478
500
510
496
490
511
513
494
492
511
505
485
492
512
504
487
499
513
497
482
500
508
490
481
503
508
491
489
511
509
490
494
515
509
493
506
523
514
500
518
528
512
498
517
522
504
497
518
517
495
494
514
514
508
532
564
564
540
533
524
500
485
503
512
495
486
504
508
491
487
508
505
488
491
511
506
488
499
515
502
488
507
520
509
499
522
527
512
507
528
532
513
514
535
530
514
522
540
530
514
525
535
518
501
516
518
502
489
504
502
478
470
485
479
461
468
488
486
473
484
499
487
474
488
503
489
479
497
500
482
475
495
494
475
477
499
497
481
490
500
487
466
474
481
462
446
463
469
454
447
468
471
458
461
486
485
471
476
498
493
475
485
498
485
469
481
486
464
452
470
475
458
453
474
474
461
468
487
483
467
477
493
484
470
486
500
488
480
496
501
486
475
498
501
484
484
500
495
478
492
525
527
511
509
499
467
445
460
472
460
455
478
484
470
469
492
498
481
485
502
493
474
480
493
479
459
473
490
481
479
502
512
499
491
518
522
504
503
523
513
491
493
509
498
480
491
504
489
474
490
499
482
474
498
506
493
492
517
515
501
505
525
520
507
517
537
519
498
505
507
484
468
487
494
477
472
494
496
478
477
496
490
475
487
508
504
491
508
527
522
514
533
546
531
525
548
551
537
532
551
548
530
530
544
532
510
516
527
514
496
510
520
504
491
509
514
496
489
509
510
491
492
512
508
492
500
522
513
497
507
514
494
476
493
502
485
475
495
499
485
488
518
520
505
513
532
526
506
514
524
509
500
529
554
548
533
534
515
479
467
487
488
472
475
497
498
488
503
528
525
515
531
542
529
511
523
527
507
495
513
513
493
491
510
508
490
495
514
510
497
513
533
529
521
540
552
538
525
542
543
523
513
529
525
505
504
522
516
498
505
522
511
494
506
517
502
488
504
511
494
486
506
507
489
486
506
502
483
487
507
500
484
496
510
497
482
498
507
493
484
505
509
492
482
495
488
465
463
479
474
458
470
491
486
474
489
501
489
477
494
500
484
477
497
498
481
481
502
500
484
489
502
489
465
471
482
465
447
459
468
453
442
462
464
449
450
476
481
469
475
498
498
486
497
517
511
496
510
521
507
494
512
517
501
494
512
514
499
505
537
549
547
550
547
510
471
470
474
456
436
445
447
427
415
431
430
413
409
430
429
412
416
439
436
422
435
454
446
435
455
470
461
455
479
491
482
483
513
521
511
517
540
538
518
526
541
526
506
511
515
493
473
487
493
474
464
482
485
468
464
484
481
463
469
489
484
467
477
495
486
472
490
502
489
481
505
515
502
503
532
538
528
532
553
554
538
549
565
556
539
548
562
552
541
557
568
549
539
554
550
528
521
537
531
512
515
533
528
511
522
537
527
512
528
541
530
520
539
544
528
522
541
539
525
525
546
543
527
526
538
521
498
506
514
498
485
503
508
491
484
505
507
490
488
509
508
492
500
523
520
508
524
544
539
533
563
593
599
598
608
590
547
524
537
533
514
514
535
530
514
521
537
528
512
525
537
524
509
527
533
517
509
528
529
513
512
530
526
506
510
526
518
501
511
526
517
503
519
529
516
506
523
525
506
496
509
502
480
478
494
486
466
472
486
475
456
469
481
468
457
476
484
468
461
482
485
468
468
490
488
471
478
498
491
476
490
504
495
483
500
510
498
490
511
515
498
495
516
516
499
502
523
519
503
511
526
517
502
516
527
514
503
521
526
509
500
517
515
497
497
514
509
493
498
515
507
491
502
516
506
493
510
519
504
495
516
518
499
496
513
510
491
491
506
497
481
489
504
493
478
493
504
496
494
530
552
549
542
544
520
489
484
503
499
481
486
501
492
477
490
503
493
479
495
503
488
480
498
501
483
480
500
497
479
484
501
496
481
487
500
486
470
486
499
488
479
497
501
484
478
495
493
474
472
487
480
460
462
472
461
441
451
462
446
432
444
449
431
422
444
450
437
437
458
455
436
440
457
449
430
441
457
451
437
456
470
459
452
475
482
469
463
483
484
469
471
493
487
468
476
492
483
468
483
497
484
473
490
497
480
473
493
496
481
479
499
499
484
492
511
506
493
502
524
508
496
508
516
502
491
511
511
490
486
505
510
493
500
520
515
497
504
520
508
494
507
518
500
485
503
506
490
484
502
504
489
498
535
551
544
549
547
515
482
487
499
485
472
488
495
481
470
488
491
476
473
495
495
479
481
501
498
482
494
511
502
489
505
519
507
498
517
523
504
496
515
514
493
493
513
507
489
497
516
509
492
504
514
498
484
503
512
497
489
509
515
501
501
523
522
505
509
531
527
512
524
542
534
520
537
550
538
529
551
560
547
546
568
569
551
553
575
571
558
566
580
569
550
563
578
569
559
580
588
572
564
584
587
573
567
585
576
549
546
558
550
534
549
571
566
556
575
588
578
563
581
583
567
565
584
588
569
570
592
586
568
574
589
576
560
566
571
554
537
552
557
540
530
549
550
532
530
548
544
526
532
550
546
533
546
563
553
541
563
587
593
599
624
618
579
553
561
559
542
544
562
558
539
542
555
543
526
536
547
533
519
535
540
525
516
533
532
514
510
526
522
505
509
527
520
504
514
526
514
499
512
521
505
495
513
516
498
492
507
503
484
482
498
490
467
471
480
468
446
455
460
442
425
440
442
424
415
434
434
417
417
438
434
417
425
444
438
425
440
457
449
437
456
469
457
450
472
479
466
465
488
488
472
478
499
496
482
492
511
506
495
513
527
514
503
523
531
516
509
529
530
512
510
530
527
511
517
536
528
512
524
537
526
511
528
538
525
517
537
540
525
522
543
542
526
528
546
541
523
531
543
531
515
527
540
527
515
534
541
528
521
538
544
533
545
583
591
572
559
546
511
485
495
514
508
499
517
526
513
504
524
528
512
508
522
516
494
491
505
495
473
477
489
477
460
473
481
466
456
474
479
461
454
474
472
454
452
474
472
457
464
483
477
462
473
483
471
459
477
484
468
460
481
484
468
464
485
483
465
468
488
485
470
481
497
487
474
486
492
477
465
481
488
472
466
488
490
475
476
498
496
481
489
507
501
488
498
512
497
482
499
508
493
486
509
512
495
494
515
512
498
502
521
515
499
509
527
520
506
524
537
523
515
538
544
529
526
549
550
534
539
562
558
545
556
573
564
550
566
577
564
553
569
575
560
551
570
573
560
568
603
616
608
606
602
571
542
547
560
550
537
550
560
544
534
553
557
540
536
557
557
541
542
562
555
538
548
565
556
542
559
574
565
556
575
583
568
560
579
581
564
562
579
576
559
561
572
558
537
542
550
535
521
536
542
526
515
533
535
518
510
528
527
511
512
528
523
507
515
529
520
505
518
527
516
505
521
525
507
494
509
509
493
492
512
508
491
495
509
501
485
495
508
498
486
500
507
494
484
501
502
488
484
500
498
481
480
493
484
463
463
470
456
439
449
457
444
430
445
444
427
417
431
429
411
412
429
426
411
417
432
424
408
419
429
418
405
418
424
409
397
413
413
396
393
411
411
393
395
413
413
410
437
468
467
446
439
426
402
388
407
413
399
394
415
416
400
399
417
413
396
404
422
416
401
410
419
407
395
413
421
407
399
419
424
410
407
427
428
416
422
438
433
417
426
440
429
417
433
441
425
416
435
440
426
423
446
448
434
436
458
459
444
452
471
468
457
472
486
476
466
486
496
483
476
496
500
485
482
501
502
486
492
511
505
493
507
522
514
502
520
529
517
508
527
531
517
512
532
532
517
519
539
538
524
532
549
543
528
539
549
535
522
537
541
526
518
535
535
517
511
528
524
507
511
526
516
498
506
519
508
494
508
516
501
491
509
513
499
496
515
515
500
503
522
518
502
511
527
521
509
523
533
521
509
529
545
548
560
592
594
560
533
530
515
494
495
506
495
476
485
496
484
470
482
489
475
465
483
486
472
468
485
482
465
465
482
477
461
470
485
477
464
479
491
479
470
487
493
477
471
489
489
473
471
487
481
463
469
485
476
461
471
482
470
459
476
485
473
465
483
487
472
471
490
489
474
477
494
488
473
483
497
489
475
489
498
488
478
498
505
492
486
504
507
491
490
506
503
487
493
508
501
485
496
509
499
486
503
511
496
487
506
509
494
490
507
505
489
493
512
506
491
501
517
510
499
515
524
511
500
518
524
511
505
524
524
507
507
527
523
508
517
532
525
513
527
539
528
514
530
536
521
514
533
535
520
517
534
533
527
546
581
587
569
560
551
525
507
522
534
522
513
532
536
522
518
536
536
522
525
542
538
520
526
541
533
520
532
544
534
524
542
550
539
533
552
555
541
541
560
559
544
548
563
557
543
553
566
554
539
551
558
544
532
548
549
532
525
542
540
523
525
542
537
520
526
539
530
515
527
537
524
510
525
528
513
504
522
520
503
500
520
517
500
505
522
515
499
510
523
509
495
511
521
509
502
521
525
509
504
523
521
503
504
520
514
498
506
520
510
496
510
523
511
499
514
516
497
486
506
504
490
486
502
498
482
485
501
495
482
493
505
497
484
500
509
496
487
506
511
496
493
514
515
501
507
531
538
540
565
587
572
538
531
532
519
512
535
542
529
524
546
548
532
531
551
547
531
537
554
549
534
545
557
548
534
551
556
541
531
550
551
537
536
556
556
536
539
560
559
545
557
571
563
547
561
562
544
529
540
541
523
514
529
528
512
511
529
526
510
509
522
519
502
515
538
535
531
552
561
551
546
562
568
551
546
561
562
536
529
526
506
469
462
460
444
418
428
432
409
399
419
427
416
417
442
447
438
446
469
469
455
466
485
480
470
486
501
495
488
507
516
504
497
517
520
505
501
519
516
500
504
520
513
496
505
520
512
500
514
523
509
498
514
519
505
499
518
517
499
498
515
509
493
498
512
509
507
537
563
559
539
530
511
485
473
490
492
477
474
490
487
471
474
487
480
465
474
485
476
461
474
480
465
451
460
457
438
430
446
444
427
426
441
436
422
429
443
433
418
432
444
434
424
442
447
432
424
442
444
430
430
448
446
432
437
452
447
433
444
456
447
435
451
459
448
440
457
460
444
438
454
453
438
441
458
454
440
448
464
457
446
460
471
461
451
469
474
460
455
474
474
459
457
476
472
456
461
475
467
454
466
479
470
459
475
483
470
463
481
484
471
467
486
485
470
472
489
484
470
478
491
482
469
482
491
481
471
487
492
478
472
489
488
472
470
483
477
461
466
479
471
455
464
473
461
446
464
480
485
496
531
535
505
479
477
466
450
454
470
465
450
458
472
464
452
465
475
464
453
467
467
453
448
467
469
455
456
476
473
458
460
469
457
439
451
462
452
442
457
464
452
445
464
465
449
446
462
459
444
452
474
473
461
474
491
482
471
488
502
492
486
508
516
504
502
525
525
510
511
529
524
509
517
533
525
513
527
540
529
517
536
541
527
518
536
538
522
521
541
539
522
527
544
540
526
537
551
541
528
544
557
547
542
564
569
556
553
575
576
562
565
584
582
565
572
586
577
562
575
581
568
555
571
577
563
556
574
573
558
556
570
566
547
550
564
556
540
549
558
547
534
547
556
549
553
589
605
595
576
570
545
517
516
531
525
506
515
529
518
504
522
537
526
517
536
542
528
522
542
540
524
525
544
543
529
535
550
543
527
538
550
540
528
544
550
537
529
546
548
531
526
540
536
515
510
522
511
491
494
504
491
475
488
496
483
471
489
496
484
478
497
498
482
482
503
500
485
490
506
499
486
499
511
499
487
504
512
498
490
508
509
493
490
510
506
488
490
505
498
483
492
506
496
486
502
511
499
489
508
515
501
494
513
514
498
499
517
512
495
503
518
511
496
510
525
517
505
525
533
520
513
532
534
518
516
534
531
515
518
534
527
513
529
555
561
563
585
587
553
520
525
525
512
508
528
527
510
510
529
526
511
520
536
528
516
530
542
531
521
537
545
532
526
544
546
529
526
544
542
527
533
549
542
527
538
549
539
526
538
542
526
514
528
528
509
501
518
514
497
497
512
505
488
495
507
500
487
500
510
501
490
505
511
498
494
511
511
497
497
513
510
496
501
517
512
498
507
517
506
493
506
513
499
488
505
508
494
489
503
497
479
476
486
475
458
464
475
463
447
458
466
453
441
458
462
446
439
456
458
447
450
471
470
457
466
483
477
464
476
489
479
467
484
490
477
470
489
491
475
471
489
486
470
473
494
499
502
528
552
537
501
490
484
469
462
482
489
477
472
491
495
483
485
503
500
486
489
500
488
471
481
491
479
467
481
485
472
465
482
483
469
468
486
485
471
476
492
486
472
481
493
484
469
483
489
477
467
483
486
470
463
480
480
465
466
482
479
466
473
487
476
461
469
477
466
456
473
479
468
463
481
484
472
472
490
488
474
478
492
487
474
484
496
488
477
490
497
485
476
493
497
485
482
501
500
485
487
503
498
485
493
507
499
486
500
509
498
488
503
507
494
488
506
507
494
493
510
505
489
492
508
502
488
497
507
497
485
500
505
493
485
502
504
490
486
502
500
485
494
523
536
539
558
562
531
495
494
500
491
481
496
500
485
480
497
498
484
485
503
500
486
493
508
502
488
498
509
499
487
502
510
497
491
509
512
500
499
518
519
507
511
527
522
509
519
531
522
506
517
523
509
497
511
514
500
494
510
508
491
489
503
497
482
487
501
493
478
490
501
492
481
497
505
492
486
504
507
493
492
505
498
476
477
491
484
469
480
496
488
476
491
500
489
483
503
509
498
496
517
519
506
509
528
526
512
520
535
527
513
527
539
529
519
536
543
531
526
544
546
531
528
545
543
529
534
548
541
529
541
553
543
530
543
551
540
531
548
551
536
532
550
549
533
534
549
547
543
567
597
600
583
575
559
532
518
534
541
528
521
538
539
523
521
536
532
517
522
537
530
515
524
536
527
515
530
536
525
517
536
537
522
518
535
534
521
524
538
534
521
529
543
534
519
530
538
525
514
528
532
517
509
525
522
505
505
520
516
500
505
518
512
499
510
520
509
495
508
514
501
493
508
509
493
489
505
503
488
491
505
499
484
492
504
496
483
496
503
491
482
498
503
491
485
501
501
487
488
505
500
484
490
502
493
479
490
499
488
478
491
495
481
472
488
490
475
472
487
484
470
473
487
482
468
477
489
479
468
482
490
479
469
486
491
477
473
489
490
476
478
497
502
501
525
551
544
514
501
493
477
465
481
486
473
466
483
483
469
468
483
479
467
471
486
482
469
480
491
483
470
486
495
486
481
500
504
491
486
500
498
483
485
501
496
482
489
502
494
482
492
499
487
475
487
489
476
468
484
484
470
469
484
479
465
469
482
476
464
475
485
476
466
480
487
474
467
483
484
471
467
484
483
470
472
487
482
470
479
492
485
474
487
496
487
478
495
500
487
482
498
499
486
485
499
493
478
480
492
485
471
479
487
476
462
473
476
463
454
468
468
453
449
463
460
444
446
460
455
441
449
461
451
437
450
457
445
434
448
450
432
425
439
437
421
421
437
435
429
451
483
493
486
488
477
448
430
447
458
449
446
465
468
457
460
480
482
472
479
497
494
484
496
510
503
494
510
520
511
505
524
528
517
517
535
537
526
529
547
545
532
539
554
549
537
550
561
551
539
552
551
525
509
510
497
474
470
486
481
466
473
490
484
473
486
501
495
485
501
510
501
493
511
514
500
497
517
517
503
507
526
523
509
518
532
525
514
529
539
527
517
535
542
530
525
544
547
535
537
553
550
536
542
558
552
539
548
559
549
538
552
559
545
537
554
558
545
541
557
555
540
543
558
553
538
545
557
549
538
551
558
546
536
551
555
541
535
551
550
533
533
549
545
531
536
549
540
527
537
547
537
526
548
568
576
586
608
595
557
534
542
540
529
534
549
543
528
536
547
537
523
535
540
527
516
530
531
518
512
528
528
514
513
526
522
507
514
529
524
510
521
531
520
509
524
529
518
510
526
526
511
506
521
514
498
499
512
504
490
495
503
489
475
488
495
480
471
483
487
475
472
490
493
481
484
501
499
487
493
507
498
485
497
506
497
488
501
505
492
485
502
504
490
486
499
494
478
481
493
487
474
483
495
488
478
491
499
490
482
496
498
484
480
493
489
472
470
479
471
452
454
464
454
440
450
459
447
438
452
453
438
430
448
449
435
435
450
447
433
438
454
449
437
450
463
454
443
459
466
456
449
466
471
461
459
477
476
464
472
497
511
516
534
542
513
476
475
481
471
462
477
481
466
460
477
479
467
469
488
486
476
483
497
491
478
488
495
485
473
485
491
481
475
491
494
482
478
492
490
474
477
493
488
474
483
496
490
477
490
499
489
477
489
488
469
458
474
472
459
461
479
478
466
474
490
485
474
487
499
490
481
498
497
481
466
478
478
464
462
478
477
465
469
485
482
471
483
497
489
479
495
507
496
489
505
509
498
496
516
518
503
505
523
521
507
516
531
526
516
532
543
534
525
543
550
538
531
548
546
533
532
549
545
529
533
548
541
525
533
543
535
525
538
545
533
525
539
544
529
524
544
545
533
534
550
550
547
572
603
609
595
593
580
551
537
553
559
548
544
563
563
548
548
564
562
548
554
567
561
548
559
569
560
547
562
568
556
547
561
562
547
542
559
559
547
549
564
560
547
554
565
556
542
552
560
547
535
547
548
534
524
537
534
517
513
526
521
505
509
521
515
501
513
524
516
502
513
514
497
486
499
501
488
485
502
501
487
489
502
495
480
487
497
487
473
486
493
482
472
487
491
479
474
490
490
476
475
489
484
470
477
489
482
468
479
488
479
467
480
483
472
465
480
481
468
466
481
479
467
470
485
480
468
476
487
479
467
478
485
475
467
485
490
479
474
490
490
476
475
488
483
468
474
485
478
465
475
482
472
461
479
496
500
511
542
542
511
484
482
473
460
464
479
474
461
470
482
475
464
477
485
474
467
483
486
473
469
486
484
470
470
485
480
467
476
490
484
473
487
497
489
482
498
503
493
486
501
500
487
483
497
491
475
476
489
481
467
475
485
475
462
476
483
473
466
483
487
475
472
487
487
474
477
491
488
475
482
494
487
476
488
496
486
475
492
496
485
479
497
499
489
492
509
507
494
498
511
502
487
495
504
494
482
494
500
487
479
494
497
485
484
501
501
489
494
509
503
489
497
507
498
485
495
501
489
480
494
496
483
476
492
491
478
477
494
490
478
484
497
491
479
488
498
489
477
489
495
483
475
490
492
481
479
495
493
480
483
500
503
506
534
563
561
536
525
513
495
486
505
508
495
489
502
501
488
488
502
498
485
490
502
495
483
493
502
495
485
499
505
494
487
503
505
492
489
505
502
488
492
505
499
486
495
506
497
485
497
503
493
482
495
495
482
476
491
489
476
476
490
486
472
477
486
479
467
477
484
474
463
477
481
469
463
480
482
470
469
484
482
469
472
485
478
465
474
484
476
465
478
485
475
468
483
486
475
472
489
489
477
478
491
487
474
481
494
489
477
490
500
493
483
498
503
493
489
506
508
496
496
513
509
495
500
512
504
491
500
510
503
493
506
514
504
497
513
515
504
499
514
510
496
496
509
503
490
496
506
497
484
495
504
496
494
522
543
545
541
542
520
488
482
498
497
486
491
503
495
482
492
501
493
483
496
502
489
481
494
493
478
475
491
490
477
480
493
489
476
485
498
492
481
490
493
478
467
481
484
472
467
482
483
470
470
485
481
466
469
479
466
448
455
461
449
435
450
456
445
439
457
459
447
445
464
464
453
460
475
469
451
458
471
461
451
469
483
475
473
498
509
502
505
530
537
528
532
552
553
543
552
567
560
550
564
575
566
557
575
583
577
574
595
597
586
586
603
600
588
594
606
596
580
582
587
575
561
573
577
565
557
571
573
560
557
573
572
559
560
574
570
557
562
573
566
552
561
566
554
543
560
574
578
586
608
601
568
541
543
536
522
524
533
524
508
514
520
505
487
496
499
487
479
494
498
487
484
500
499
485
487
501
497
485
495
507
499
487
498
507
498
489
504
509
499
494
511
511
496
492
505
499
483
485
494
485
470
477
484
474
463
474
480
469
462
475
473
459
457
472
471
458
460
473
468
455
463
474
467
455
467
476
467
458
473
478
468
463
478
478
467
466
481
477
464
469
481
475
463
474
485
477
468
483
490
481
476
492
495
486
485
500
496
481
485
497
492
480
488
501
494
483
497
507
498
491
507
512
501
499
517
518
507
510
525
521
509
515
527
519
505
514
521
513
503
517
523
513
506
521
526
524
537
567
570
545
526
516
501
486
496
508
500
488
500
507
497
488
503
505
495
493
508
509
499
501
516
515
503
510
523
518
503
512
517
506
498
513
519
508
502
519
521
509
505
516
508
492
495
506
498
483
490
498
488
476
487
492
482
474
489
490
479
476
491
490
478
481
495
493
482
490
502
497
485
496
503
496
487
501
506
494
490
505
505
491
489
503
498
483
487
498
492
480
488
495
486
473
485
490
480
474
490
493
483
481
497
497
486
490
504
501
490
499
510
504
492
503
511
501
492
506
510
492
485
496
495
484
485
501
499
485
488
500
491
478
490
499
490
479
494
499
490
485
502
505
494
492
507
510
505
523
555
569
564
561
550
521
500
513
523
516
508
523
526
516
512
524
521
502
497
510
505
491
499
512
508
497
510
522
514
506
522
530
522
519
539
541
530
531
549
548
537
542
554
548
537
546
558
550
539
550
556
545
535
549
550
537
532
547
546
531
532
547
543
530
536
548
542
529
541
548
536
526
541
545
536
531
548
549
538
538
555
553
540
544
554
546
532
541
550
541
530
544
550
540
534
550
553
543
540
556
554
541
542
555
549
535
541
552
542
527
536
541
532
522
536
539
527
519
534
534
521
520
535
532
520
525
539
534
523
531
539
529
518
529
534
522
513
527
529
516
513
527
525
515
523
549
561
560
565
559
527
493
497
505
496
488
504
509
499
495
512
514
503
504
520
518
507
512
524
518
504
514
521
509
494
502
503
491
482
498
502
494
493
508
507
498
502
517
515
502
511
522
513
500
511
516
503
493
506
508
495
490
502
500
487
487
500
495
483
487
498
492
481
492
500
491
482
495
499
487
481
495
495
482
481
496
494
482
484
496
491
479
487
497
489
478
491
498
489
482
497
500
489
485
501
500
488
489
502
499
487
493
504
497
485
495
503
494
483
496
501
491
485
499
500
489
487
500
498
486
489
498
491
475
480
488
479
467
479
486
476
469
484
486
476
472
487
492
491
509
539
544
524
508
496
477
463
476
485
476
466
480
483
472
467
483
485
475
475
491
489
478
484
497
492
482
493
502
495
486
498
504
494
485
499
501
491
488
502
501
490
495
509
506
493
497
504
494
479
486
489
477
465
476
477
465
458
470
467
454
452
464
459
445
448
459
454
443
453
464
457
449
462
467
457
452
467
469
460
459
473
471
460
462
474
470
460
466
475
467
455
463
467
457
447
460
463
454
450
461
460
445
443
456
452
440
444
453
445
432
441
448
439
429
441
445
437
432
447
443
427
418
427
422
409
412
425
421
410
420
432
427
417
432
442
435
429
448
455
446
445
463
465
457
470
502
520
528
543
545
517
487
489
497
492
484
499
505
496
491
507
510
501
500
515
513
500
505
518
514
502
512
524
517
508
522
531
523
517
533
537
529
528
544
545
535
536
549
545
532
538
548
542
531
539
543
533
522
534
536
526
519
532
531
520
518
532
529
517
522
533
527
515
523
532
525
514
526
530
520
513
525
528
518
516
530
530
518
519
529
525
515
522
533
525
514
523
527
519
507
520
525
512
505
517
514
498
496
508
503
489
494
506
500
489
501
514
508
500
515
521
512
505
521
524
514
515
531
530
517
520
533
528
517
525
536
528
516
528
533
526
517
533
537
528
524
537
532
511
505
512
506
492
496
508
505
494
508
527
532
544
576
590
570
542
536
528
517
518
535
534
520
521
532
527
514
520
530
524
514
528
536
527
520
534
537
525
521
536
536
524
523
536
532
520
525
536
529
516
525
531
522
510
523
527
516
507
520
519
504
500
512
506
492
495
508
503
490
498
509
502
491
504
511
501
493
507
509
496
492
504
501
487
488
502
499
489
495
505
498
487
498
505
498
489
503
507
495
487
493
487
465
456
466
461
448
453
465
460
447
455
463
455
445
458
465
459
451
469
473
466
466
485
485
475
479
494
491
480
487
497
489
478
487
493
483
473
485
489
479
475
491
492
479
478
493
490
477
482
495
491
481
492
503
496
487
502
509
501
497
520
537
543
555
572
554
516
499
507
504
493
503
516
510
500
514
523
515
508
524
528
519
515
531
531
517
517
531
528
517
523
535
530
519
530
540
533
523
538
544
535
529
546
549
539
536
551
549
538
539
550
543
528
534
544
535
524
537
544
535
528
541
543
530
524
537
536
521
518
524
517
502
506
519
510
496
502
506
494
484
499
505
497
494
511
515
508
507
523
524
514
518
532
529
517
524
533
526
516
528
534
526
519
531
533
523
518
530
528
516
515
526
523
510
515
524
517
504
512
519
508
496
505
506
493
483
494
494
480
477
489
486
474
477
488
483
472
482
492
484
475
487
493
484
477
495
508
515
530
557
555
526
501
496
486
474
479
489
482
470
477
481
468
455
460
460
450
446
463
465
457
457
470
469
459
463
476
472
463
473
484
480
471
484
491
483
477
493
495
486
485
499
497
485
487
498
493
481
485
490
480
467
475
479
470
460
472
474
463
458
471
471
462
461
474
471
461
464
476
472
462
472
480
474
465
478
483
474
466
477
474
461
456
467
465
453
455
468
463
451
458
468
462
452
462
467
460
453
466
470
460
455
469
470
460
463
477
476
467
474
487
484
477
488
497
493
484
498
504
496
490
506
509
500
500
515
514
504
508
519
514
501
509
517
509
498
509
513
504
494
506
506
494
489
506
514
519
535
558
551
520
498
491
478
464
473
481
471
462
476
479
471
467
482
483
471
468
481
479
468
471
482
478
467
476
485
478
470
484
494
489
484
500
504
495
493
508
508
496
497
509
503
491
495
505
496
485
493
499
491
483
497
503
496
490
503
502
490
489
503
501
491
495
506
501
490
498
507
501
491
503
508
498
491
504
507
498
497
511
509
497
498
509
505
491
495
502
493
480
490
497
489
482
495
499
488
482
494
493
479
478
490
488
477
482
495
489
478
487
493
484
475
486
490
480
474
488
492
483
484
498
498
489
495
509
504
492
498
505
497
487
498
504
496
489
505
509
499
493
506
505
494
494
506
504
494
500
510
509
507
531
556
562
552
548
529
503
493
508
513
505
503
516
513
502
504
517
513
503
512
523
519
514
528
536
528
521
531
530
516
510
523
522
510
510
522
519
507
513
525
521
509
521
528
521
511
525
528
519
511
524
523
511
509
520
516
503
506
516
510
498
506
513
504
494
502
506
495
487
500
503
493
490
505
507
497
499
513
507
496
500
505
497
484
494
499
491
483
498
502
494
491
506
507
496
497
512
512
502
509
523
519
510
521
531
527
520
534
540
532
527
540
541
530
527
542
540
529
532
543
536
524
528
536
529
518
527
531
521
510
522
525
514
508
522
523
514
513
526
523
511
516
528
524
511
520
526
516
505
519
530
534
546
576
584
564
538
527
516
505
509
518
512
496
500
507
501
491
504
510
503
496
510
515
507
504
519
520
509
509
522
519
508
516
530
526
517
527
535
529
522
536
542
534
530
542
543
531
527
539
534
519
518
526
520
505
511
517
509
499
509
511
497
485
493
494
483
479
493
493
482
483
493
488
476
483
493
490
481
491
498
492
484
498
503
494
489
504
505
494
493
507
503
492
497
508
503
493
501
509
501
492
504
510
500
491
502
501
488
483
495
493
483
485
499
497
488
495
505
500
489
501
509
502
495
509
513
505
502
515
514
503
502
515
514
504
508
520
516
505
514
521
510
500
509
512
502
495
508
509
498
497
517
530
537
553
563
542
506
494
499
494
486
498
504
496
489
502
504
495
489
502
501
491
492
504
503
493
498
508
504
494
503
509
501
492
505
510
502
497
508
509
495
491
504
500
486
487
498
493
482
489
497
488
477
487
492
481
472
485
487
476
472
486
485
475
476
489
486
478
486
498
495
487
498
506
500
492
504
509
500
490
497
489
472
468
479
477
467
472
482
476
462
468
477
469
460
473
479
472
468
483
486
477
475
489
490
480
480
492
490
480
487
499
497
488
500
509
504
498
514
518
510
506
520
521
511
511
525
522
512
515
526
521
511
522
533
527
518
530
536
526
519
531
533
523
520
531
528
515
516
527
521
509
521
540
550
556
575
572
544
511
512
513
506
504
519
518
505
504
517
515
505
510
521
517
507
517
525
516
507
519
523
514
508
524
526
518
518
533
532
520
523
535
532
522
529
538
530
519
528
532
522
512
517
510
492
478
489
488
477
478
490
488
477
483
493
486
476
488
498
494
491
507
515
509
505
520
520
511
509
522
519
508
511
521
516
506
514
523
515
503
514
518
510
503
516
518
508
504
515
514
502
502
515
514
506
513
523
519
507
513
514
498
482
488
487
474
468
480
481
472
472
485
484
476
480
492
490
480
488
496
490
481
492
496
489
483
497
500
493
490
502
501
489
490
500
489
473
472
470
455
435
444
450
443
438
453
460
459
468
502
522
522
514
506
480
457
459
471
469
457
466
474
465
456
468
473
466
461
475
480
474
474
490
492
483
488
500
497
488
496
506
501
492
505
514
509
504
518
522
512
508
522
520
507
507
521
516
502
506
516
511
502
512
518
510
503
516
520
513
506
519
520
512
512
526
525
516
519
531
527
517
527
536
529
521
530
534
526
518
529
529
519
515
526
524
513
513
523
519
509
514
521
515
504
513
517
508
498
508
509
499
494
508
507
497
495
507
503
494
497
505
498
486
492
498
493
486
496
500
493
487
499
499
489
486
496
492
481
481
490
485
475
481
490
485
477
486
491
483
475
487
490
482
476
487
486
475
471
478
472
458
460
474
476
481
506
530
526
502
490
478
465
460
477
482
474
473
486
485
474
477
489
486
477
486
495
491
483
496
503
498
492
506
510
503
502
517
518
509
511
525
525
516
521
532
528
519
530
538
530
520
531
533
521
513
525
524
513
511
523
522
514
519
531
529
519
527
536
531
522
532
536
527
521
533
535
525
521
531
528
518
518
529
526
516
521
528
521
510
519
524
517
508
520
523
515
510
522
523
509
507
515
508
495
499
510
505
495
503
509
502
493
505
510
504
499
513
512
501
496
506
504
494
499
512
513
506
515
523
517
507
515
518
510
505
518
524
518
514
524
520
508
505
514
510
498
500
508
506
503
525
548
556
551
547
527
499
487
499
501
494
493
504
503
494
495
503
497
486
493
500
496
489
499
507
499
493
502
503
496
494
508
510
501
503
512
505
492
496
504
499
491
501
508
502
497
509
513
504
499
509
508
496
493
503
500
490
494
504
501
493
500
508
502
495
506
512
505
499
510
511
502
498
508
507
498
499
509
507
496
499
504
496
484
490
493
485
477
488
490
481
477
488
489
481
481
493
491
482
486
496
492
483
491
498
493
485
495
500
493
486
498
499
490
488
499
498
490
492
502
498
488
496
504
500
493
502
507
503
496
510
513
505
501
511
509
498
497
506
503
493
496
504
499
490
496
501
495
493
515
536
547
551
552
528
495
480
487
485
475
476
485
481
472
477
484
478
470
481
485
478
474
484
486
477
474
485
484
473
472
479
473
462
467
475
472
464
475
481
477
472
484
489
483
477
490
489
478
476
487
484
475
478
486
482
471
478
484
478
471
480
483
475
468
479
481
472
468
478
474
462
463
472
468
460
463
470
464
453
457
459
451
442
453
455
448
445
459
460
451
449
458
453
440
443
451
449
442
451
457
453
447
458
462
457
452
464
467
461
461
474
473
465
468
479
476
465
472
480
474
465
474
478
469
460
468
466
453
447
459
457
446
446
458
454
446
453
465
463
457
469
477
472
465
478
484
479
475
488
489
477
473
485
485
482
500
533
551
556
560
551
522
501
508
517
510
504
517
520
513
510
524
523
515
516
527
525
515
520
530
526
518
529
537
529
520
531
533
525
520
536
538
530
532
546
545
537
541
552
549
539
547
554
548
539
548
551
540
529
535
530
517
513
527
527
519
520
534
534
525
533
544
538
526
536
542
533
526
539
543
536
533
546
546
536
537
549
548
538
544
554
550
541
551
558
553
545
556
560
553
547
559
560
550
547
558
558
550
553
564
561
552
557
564
558
547
557
562
555
547
558
561
552
548
561
559
547
545
555
551
539
542
550
545
536
545
550
542
533
544
546
538
534
545
546
537
536
548
546
537
539
546
541
526
528
533
524
514
525
531
524
522
547
567
575
582
588
568
535
524
535
533
525
532
540
536
528
539
545
540
534
546
550
541
536
548
547
539
537
546
542
532
534
543
539
531
538
546
540
531
541
545
539
533
544
547
538
534
545
541
529
528
536
530
518
522
526
517
506
513
514
505
494
503
503
494
489
499
498
490
489
499
497
487
490
499
501
489
497
494
478
465
471
476
470
467
481
482
474
474
487
486
478
482
491
488
478
485
492
486
478
488
491
484
477
487
489
481
477
487
487
478
478
488
488
480
485
500
491
485
491
493
484
476
487
489
481
476
489
490
482
481
493
493
485
489
501
499
491
498
503
496
487
495
500
494
488
499
501
494
490
501
503
501
516
543
556
552
546
529
500
480
485
487
479
470
476
476
466
459
469
467
457
454
462
458
450
454
464
461
453
460
466
461
453
464
467
460
454
466
468
462
461
474
473
466
468
476
472
463
467
473
468
460
468
472
464
455
462
460
451
447
456
454
445
443
452
449
440
442
450
445
436
443
448
444
436
444
446
440
435
446
447
439
437
446
444
436
437
445
441
432
437
443
437
427
432
432
422
414
424
427
420
417
427
427
419
421
432
431
423
428
436
432
423
432
439
435
428
439
442
436
434
446
446
437
436
445
444
435
438
446
442
434
443
452
450
445
454
458
451
444
453
454
447
445
456
455
448
450
459
456
448
452
459
453
445
454
460
454
450
465
482
494
509
531
526
498
478
477
472
465
470
477
465
451
449
449
440
432
443
448
443
437
450
450
440
435
446
449
446
454
468
469
464
474
485
483
478
490
498
496
494
510
517
514
516
531
526
514
506
509
503
490
492
497
491
479
483
489
483
473
484
488
481
478
493
497
490
490
503
503
495
500
512
512
506
517
529
527
523
537
546
543
539
553
558
551
549
562
562
556
558
569
568
559
564
572
568
560
569
574
568
560
570
573
568
563
574
574
564
561
570
568
561
567
577
574
565
569
574
567
557
565
567
559
551
560
559
549
545
550
545
531
519
511
488
461
455
456
447
435
445
452
446
439
451
454
447
444
460
463
458
462
480
483
478
484
497
497
497
520
547
562
572
584
574
545
523
529
533
530
529
541
540
532
536
550
551
544
553
565
562
555
568
575
571
567
580
584
576
571
582
581
571
570
582
582
574
578
587
582
572
580
587
581
575
587
596
591
586
597
598
588
585
595
591
581
583
591
588
579
586
593
588
580
589
592
584
576
586
585
575
568
576
573
562
563
572
569
561
563
567
561
551
559
562
555
546
554
555
547
542
552
550
540
536
543
535
520
518
523
516
506
510
514
506
495
504
506
496
488
499
500
492
489
500
500
491
488
497
490
478
481
485
478
467
476
483
479
474
491
497
493
492
507
510
505
507
519
519
511
514
523
518
510
516
521
513
504
511
511
501
497
515
528
534
538
541
517
484
474
482
480
473
480
487
479
467
474
478
472
466
477
480
474
472
485
485
478
478
488
486
479
484
494
492
484
495
501
497
490
501
505
499
494
505
505
499
497
508
505
495
493
498
491
478
482
486
478
470
478
481
472
464
474
474
466
462
472
474
467
469
477
474
467
473
482
479
474
484
491
487
483
494
498
493
490
499
499
492
491
500
499
491
494
502
497
488
493
497
489
479
486
487
479
474
484
485
478
477
487
485
476
475
483
480
473
476
480
475
465
471
473
466
457
465
467
458
455
466
465
457
455
463
459
451
453
459
454
447
454
459
455
447
459
465
469
478
503
513
503
480
462
443
427
428
437
434
424
429
435
429
422
433
439
435
431
442
445
440
438
452
454
449
452
464
464
460
468
481
480
473
481
487
483
478
490
493
486
483
493
493
486
486
497
496
489
490
497
492
483
486
491
483
473
480
479
469
458
466
467
461
457
470
470
463
464
474
471
464
469
476
472
466
475
480
475
467
475
474
465
458
469
472
467
469
481
480
474
479
490
486
479
486
491
481
470
474
473
464
454
461
459
448
444
453
452
445
448
462
461
455
464
476
476
472
486
495
492
490
502
507
503
501
515
519
515
519
530
530
523
528
536
532
524
532
535
527
520
529
531
524
518
527
526
519
524
548
563
566
563
553
522
496
496
506
504
496
505
508
502
500
514
520
518
517
531
532
525
527
538
537
530
535
543
541
536
546
554
550
539
543
537
523
515
526
529
523
523
537
537
532
537
546
542
533
539
545
537
528
536
536
529
522
534
538
532
529
541
539
531
533
542
540
533
539
546
543
536
544
549
543
536
545
549
542
538
548
548
539
538
547
542
532
535
543
540
533
539
543
535
527
533
534
528
522
531
533
526
524
534
534
526
526
532
526
516
518
521
514
502
507
509
501
494
502
502
494
489
496
492
482
481
490
487
481
485
493
488
479
485
490
486
481
493
498
494
490
501
501
494
494
504
502
494
494
500
495
484
488
491
486
484
505
526
535
535
534
509
474
456
459
454
442
439
448
445
437
442
451
448
440
448
454
449
444
457
462
458
457
470
473
467
468
478
477
471
479
491
491
486
496
504
502
497
508
513
507
504
515
517
509
506
515
513
504
505
513
510
500
504
511
505
499
509
514
508
502
513
516
510
506
518
519
512
513
522
520
504
509
514
508
499
506
509
501
489
493
493
485
481
491
491
483
479
488
487
479
481
492
491
484
493
503
500
493
501
506
501
497
509
513
506
503
514
513
505
505
512
508
499
500
505
497
487
494
499
494
488
498
502
497
493
502
500
491
486
494
490
480
481
490
486
477
483
487
481
474
484
491
486
481
492
495
488
487
506
521
532
548
561
544
513
502
505
498
485
486
484
473
463
469
470
462
458
472
476
471
475
489
491
486
493
506
503
498
509
517
514
509
522
530
528
526
540
544
540
542
555
557
550
552
562
559
551
556
560
552
541
545
546
538
531
540
541
533
527
534
530
518
512
517
510
498
500
508
505
498
507
513
508
503
514
519
515
512
522
523
514
514
524
523
513
516
526
525
519
527
534
532
525
535
539
533
528
540
540
533
530
539
535
524
520
526
522
514
517
524
520
514
523
531
528
524
536
540
535
531
542
545
538
538
548
546
538
542
550
548
543
550
555
549
541
549
553
546
539
546
543
532
523
528
524
514
514
523
519
510
521
537
550
561
582
584
562
532
525
522
517
513
524
523
513
510
517
512
503
507
514
509
501
507
510
504
496
504
506
500
492
501
498
489
488
498
498
493
498
507
504
496
500
505
499
492
499
501
497
490
495
492
482
475
480
476
466
464
469
464
455
458
464
457
449
453
456
448
443
453
457
452
447
457
458
453
451
459
455
447
444
447
440
430
437
443
433
420
425
427
423
419
432
435
430
430
442
444
436
441
448
446
439
447
457
456
453
465
474
474
472
484
487
481
479
491
494
490
492
502
500
492
495
501
497
491
498
502
497
490
498
502
498
494
504
505
498
497
507
506
489
478
468
448
432
437
450
454
456
472
482
475
470
476
477
476
477
489
492
491
504
529
542
550
554
546
518
488
485
491
489
485
493
494
489
487
499
502
496
496
503
498
489
486
487
481
472
477
483
479
473
482
489
487
486
499
505
502
500
508
505
498
498
507
506
500
502
506
501
493
499
501
492
483
492
493
487
482
489
487
479
473
476
469
460
460
468
466
461
468
471
462
457
463
465
461
456
466
470
466
467
478
477
471
467
473
466
457
462
470
462
455
455
457
451
445
459
465
462
461
475
478
474
476
488
491
488
495
502
499
490
497
503
499
495
505
509
503
490
494
476
457
444
445
436
423
421
427
423
414
420
429
428
425
439
450
448
443
454
455
447
444
460
467
467
475
489
491
485
492
503
501
496
507
515
513
510
526
536
536
536
552
562
568
584
610
617
605
589
580
571
569
581
591
589
585
596
600
596
592
602
604
599
598
608
607
602
603
611
606
600
605
609
602
595
602
604
596
590
596
591
576
559
554
542
527
519
524
518
507
509
514
508
499
504
508
502
495
503
505
500
495
507
507
501
501
511
510
503
505
516
517
508
512
514
507
499
506
510
504
497
507
508
502
500
509
510
506
507
515
514
510
513
518
513
503
506
508
500
494
503
503
495
490
498
496
487
486
493
491
484
484
491
488
480
483
487
482
471
474
471
458
443
445
440
427
414
411
395
378
370
372
364
354
359
368
367
363
377
389
390
387
403
409
406
404
418
424
422
426
442
448
445
457
482
500
518
545
558
542
515
514
518
516
519
534
538
533
533
549
553
551
561
581
587
589
596
603
601
592
606
610
604
599
610
614
608
605
612
613
607
607
614
613
606
612
618
614
603
600
588
567
550
550
549
540
530
535
531
523
521
530
529
523
526
534
531
523
528
535
533
527
535
539
535
530
540
544
536
534
544
542
536
539
544
538
531
530
529
522
513
507
497
472
448
442
435
421
412
418
415
405
403
413
414
410
415
423
420
414
423
431
430
428
441
447
444
443
458
464
462
462
474
477
474
480
477
463
432
418
416
406
392
399
406
401
397
411
416
409
407
422
428
424
431
448
455
456
470
494
505
508
525
539
537
539
557
566
571
580
605
623
640
651
658
642
613
595
596
593
587
592
599
594
587
592
593
584
579
581
580
571
557
552
537
514
505
506
498
484
485
487
481
473
478
483
479
474
481
482
479
476
483
481
474
474
481
478
474
477
482
477
471
477
482
481
476
483
481
471
461
460
451
444
446
459
463
454
450
446
434
423
426
431
426
419
429
435
434
434
446
448
441
439
450
451
446
452
462
461
459
465
509
556
644
748
833
897
925
932
934
935
935
936
937
936
936
936
936
937
935
932
906
883
852
818
783
670
583
452
321
212
137
99
74
58
44
34
25
19
14
11
8
5
5
5
1
2
2
0
0
1
0
0
0
0
0
0
0
0
0
0
0
0
0
0
0
0
0
0
0
0
0
0
0
0
0
0
0
0
0
0
0
0
0
0
0
0
0
0
0
40
107
157
165
168
180
188
197
230
266
285
298
330
359
373
387
418
440
450
472
490
499
486
484
498
499
495
508
530
532
526
543
552
546
542
566
579
577
578
602
612
609
618
644
653
653
669
692
697
694
707
722
718
715
731
743
738
733
756
767
763
766
791
795
790
799
817
818
810
820
833
830
816
826
831
825
818
831
838
832
828
843
846
837
838
854
854
844
849
859
850
837
844
851
848
837
851
857
849
840
855
860
849
847
866
864
849
848
860
853
844
853
866
861
852
860
860
848
835
844
847
838
832
846
845
834
835
847
844
832
835
842
835
823
830
837
832
822
832
835
827
819
825
821
812
809
816
813
806
819
842
849
841
835
816
786
767
776
782
775
767
779
779
766
757
766
759
740
736
743
731
714
716
721
711
697
703
702
690
677
687
687
672
661
671
669
655
651
666
660
643
642
650
641
625
629
621
597
565
562
550
524
502
504
496
479
472
480
476
458
454
460
452
435
437
445
435
422
435
441
431
422
436
439
430
426
443
445
435
437
452
454
444
451
464
460
451
461
467
459
449
461
462
451
445
458
457
445
441
456
454
444
446
460
455
444
450
457
448
436
448
453
442
429
438
434
418
410
424
421
404
401
417
414
400
408
423
419
409
420
427
416
406
420
423
415
409
418
418
414
422
448
461
463
461
449
419
391
391
395
392
386
395
396
393
392
400
400
394
392
397
393
388
387
392
390
384
384
381
372
366
370
370
364
360
366
367
366
367
376
378
378
381
388
389
387
390
394
392
387
390
391
385
382
385
380
372
365
367
365
361
361
367
367
364
366
367
367
365
370
374
375
375
383
384
384
384
394
401
403
408
416
418
420
425
433
436
436
443
449
450
449
454
457
456
456
462
461
456
453
454
453
450
453
456
455
450
449
452
450
446
450
451
448
443
444
440
431
423
427
427
423
422
426
422
413
413
418
416
412
418
425
424
423
430
433
431
431
439
441
439
441
460
479
495
511
519
499
467
450
442
432
424
427
429
423
418
424
426
424
421
426
428
427
431
439
440
440
443
444
438
430
428
430
428
426
432
435
435
437
447
452
453
456
466
467
468
474
484
487
487
493
497
494
491
495
498
495
493
501
504
503
503
514
516
517
521
529
529
527
529
534
531
528
531
534
528
524
527
525
519
513
512
501
486
470
463
453
443
439
440
438
434
439
443
445
444
456
464
466
470
480
486
486
489
498
502
503
508
518
524
528
535
542
546
544
548
551
546
541
548
550
549
549
556
555
551
550
556
555
551
552
555
553
550
555
557
552
546
550
550
552
561
585
604
612
604
589
566
550
549
557
559
557
563
569
568
563
568
570
565
561
566
565
559
554
559
558
552
552
559
556
548
548
547
541
535
541
544
541
540
548
551
548
547
555
557
552
549
553
547
539
538
538
526
511
509
509
502
495
500
501
498
494
504
506
503
504
516
518
517
522
531
530
526
533
540
539
536
542
544
540
535
541
542
538
533
537
531
519
508
508
496
483
482
484
479
471
477
480
476
472
481
487
487
485
498
503
501
502
513
514
511
516
524
521
516
521
525
520
515
520
523
519
515
524
527
523
522
531
531
524
522
527
525
522
529
537
536
534
541
544
541
536
541
542
535
529
535
535
528
525
526
518
510
511
520
526
536
560
573
578
555
536
510
493
485
490
481
478
476
484
482
475
478
483
479
473
476
479
478
474
479
480
472
463
472
476
474
473
483
482
481
482
489
484
476
468
465
457
447
448
449
444
436
441
441
432
426
432
430
425
424
430
428
423
424
430
428
423
425
430
428
421
426
426
418
408
415
413
407
407
419
421
417
421
430
428
424
431
439
441
438
449
458
460
460
470
473
470
471
484
488
486
490
499
498
492
493
495
490
484
490
497
495
492
505
509
507
503
511
512
507
507
517
518
516
518
526
524
518
520
517
501
480
477
476
466
459
471
475
475
475
491
489
482
482
481
476
466
467
470
474
475
494
516
525
522
520
501
476
464
476
484
481
487
509
516
520
535
552
559
563
581
599
603
603
619
611
602
590
596
593
582
580
590
588
585
589
598
616
608
616
625
623
619
626
630
625
614
623
624
617
610
617
616
605
603
613
608
599
602
609
614
608
611
617
612
602
611
616
610
611
619
623
616
611
620
619
610
612
620
615
608
612
618
613
604
612
613
607
600
607
610
600
597
606
603
595
594
603
600
594
597
603
602
593
601
607
603
597
605
609
602
595
606
605
599
599
606
605
597
599
606
601
593
595
598
595
587
596
598
590
586
594
596
591
587
596
593
585
592
598
595
588
590
592
588
578
582
585
577
569
587
580
581
590
614
629
628
615
601
572
551
552
558
553
557
558
570
567
560
567
567
558
552
558
556
547
543
549
545
536
534
538
533
522
526
530
524
513
518
520
514
505
517
520
509
502
515
514
501
498
511
505
488
489
501
491
472
483
495
480
463
484
492
474
459
476
476
456
444
457
451
431
426
437
427
407
409
416
403
382
390
393
380
365
377
378
363
352
365
362
347
342
353
349
334
336
345
337
322
329
335
325
310
322
325
313
305
322
322
311
311
326
324
312
320
333
328
316
328
340
334
327
343
351
345
340
357
361
351
349
365
365
356
361
375
369
359
369
381
376
369
383
395
397
409
441
459
449
430
427
418
408
412
432
433
426
433
446
441
433
443
450
442
429
443
448
439
434
449
451
442
441
458
462
456
462
475
470
458
466
473
464
454
468
473
465
459
475
478
470
464
478
477
465
464
470
463
446
448
459
451
439
451
459
451
442
457
463
455
450
467
470
462
460
476
477
468
473
487
482
470
482
491
487
478
492
497
492
485
499
500
491
491
504
502
490
492
506
502
492
501
513
508
499
515
522
516
511
526
529
519
513
524
520
509
508
521
523
512
516
523
513
500
510
514
503
492
505
508
501
496
514
529
536
551
571
560
527
510
516
512
502
513
519
512
501
512
517
509
504
521
524
514
511
523
521
511
512
523
515
503
510
518
511
501
515
524
518
511
526
532
524
521
540
548
541
546
559
560
548
552
562
553
538
544
548
542
533
544
546
538
530
540
540
530
525
540
533
522
523
529
519
500
501
504
495
484
495
498
488
478
490
491
481
477
488
486
474
473
483
480
471
476
484
479
468
479
486
475
461
468
463
445
433
443
439
428
425
437
433
423
429
441
438
428
439
450
446
439
454
460
454
454
483
503
511
515
520
495
465
459
469
466
456
464
476
470
459
472
477
470
464
480
483
474
470
485
487
479
479
491
489
478
485
497
493
485
498
507
500
489
500
498
487
477
488
486
474
469
481
479
468
470
481
476
460
466
476
469
457
473
483
477
472
491
496
486
486
504
505
497
505
526
526
516
526
537
531
520
535
542
534
526
543
547
537
533
550
550
540
539
554
553
541
548
563
559
548
562
572
565
555
572
577
568
561
576
577
566
562
575
572
561
562
571
567
556
565
574
568
562
585
606
616
620
632
616
580
556
560
556
547
548
558
552
539
545
555
548
536
548
555
548
539
553
557
549
543
556
555
545
546
559
556
545
548
560
557
545
552
560
552
541
551
551
536
524
528
519
499
489
497
491
476
475
487
483
472
479
491
486
474
487
495
488
479
495
500
491
487
505
507
497
498
512
509
498
503
516
511
500
509
517
509
498
509
514
501
493
508
509
499
495
511
508
496
500
513
509
498
510
519
512
503
517
524
517
509
525
529
520
515
527
527
515
516
531
536
541
567
592
589
565
552
537
520
509
524
526
516
508
520
519
508
506
517
513
502
505
514
506
494
504
511
504
496
509
515
507
498
511
512
505
502
516
515
505
509
521
517
505
511
521
514
502
511
514
501
491
503
500
486
478
489
487
477
477
489
485
477
483
491
484
473
482
487
479
470
482
483
471
463
476
474
464
462
473
470
460
463
473
468
459
469
477
472
461
473
477
467
461
472
468
450
438
446
439
424
426
437
432
421
430
439
433
421
433
438
430
423
438
442
433
430
447
449
440
441
463
474
483
510
534
527
496
481
475
466
460
477
481
469
460
471
470
460
457
469
465
457
459
468
462
451
459
469
465
458
471
481
478
471
489
496
490
487
506
509
500
503
517
513
499
502
510
501
489
501
506
497
489
502
505
497
491
506
508
500
500
517
518
509
516
528
522
508
517
525
519
511
528
534
527
522
539
542
534
533
548
547
539
543
555
549
536
541
550
546
537
550
559
552
543
557
560
549
544
559
558
544
543
553
547
536
543
552
547
536
546
552
543
531
542
545
533
525
540
539
528
527
538
535
526
533
553
565
569
589
596
571
537
538
542
534
530
547
548
538
536
548
546
537
539
550
545
535
540
547
543
531
542
548
539
529
543
547
538
533
548
548
539
540
554
550
539
544
554
550
537
544
550
541
528
538
541
529
520
532
531
521
519
530
526
516
517
524
518
506
511
515
506
494
503
505
493
484
495
494
484
480
492
489
477
479
488
482
470
477
485
479
468
479
484
475
464
476
476
462
456
468
465
454
453
465
463
454
461
471
466
458
469
477
470
463
478
479
468
460
473
474
465
464
479
479
469
472
482
478
469
484
507
514
510
516
497
459
437
447
451
446
446
460
458
450
451
462
461
453
460
471
468
461
475
481
476
470
485
488
480
477
492
494
487
489
505
504
496
501
513
506
491
489
482
464
445
453
451
440
431
446
450
441
441
460
462
455
463
479
478
475
488
502
501
497
514
522
518
513
529
532
524
520
536
537
527
526
539
536
526
530
539
535
526
535
540
531
522
532
531
517
508
518
514
501
499
510
504
493
496
505
500
490
500
508
501
492
507
512
503
496
510
511
500
495
509
510
501
501
509
503
490
491
495
487
474
482
487
481
471
482
483
470
462
481
490
494
511
529
515
483
467
466
461
453
462
470
464
454
468
472
465
461
478
480
473
474
489
488
481
487
498
497
489
499
510
508
500
514
523
514
508
526
531
523
521
537
539
529
531
543
540
527
529
535
526
512
520
522
509
497
507
508
498
493
505
502
493
491
503
500
490
493
505
502
492
501
510
501
490
502
504
495
489
503
503
493
492
505
503
495
498
508
503
493
498
505
501
491
501
508
501
493
506
508
496
490
503
501
491
493
504
500
492
494
503
500
489
498
505
498
489
504
508
499
496
511
514
506
506
518
517
508
510
519
515
503
510
519
512
502
516
521
511
503
521
528
532
548
577
579
558
536
526
513
502
509
517
512
501
511
516
508
500
512
516
507
502
515
514
502
502
514
510
500
506
515
511
502
511
518
511
502
516
520
510
503
519
518
508
506
518
514
504
505
514
510
499
505
514
506
494
506
510
500
494
506
506
497
495
507
505
497
496
506
503
490
493
500
490
479
490
495
489
481
494
499
490
486
503
504
496
498
512
511
502
507
517
515
506
515
523
514
505
517
521
512
505
519
519
511
510
524
522
513
511
518
510
492
497
502
495
485
495
501
493
485
503
507
501
502
518
518
512
515
530
531
524
531
540
537
529
539
545
539
530
540
543
535
533
557
572
578
585
590
564
526
516
522
516
507
513
515
505
492
502
507
497
489
501
499
490
488
501
502
496
502
515
516
508
517
527
523
515
528
533
526
518
533
534
524
521
535
533
522
523
531
525
515
518
523
516
504
511
514
505
493
499
500
488
479
491
490
479
477
488
485
477
479
489
484
474
479
486
481
474
487
496
492
488
502
505
498
494
506
505
498
499
507
503
495
501
507
501
493
504
508
494
483
487
482
470
462
471
469
456
453
464
460
450
456
463
460
453
462
470
465
458
471
477
468
460
475
476
468
466
481
480
471
475
486
482
475
493
515
522
523
529
511
480
458
466
470
465
462
476
477
469
470
482
479
469
476
484
477
465
472
476
469
461
474
478
471
467
483
482
475
476
489
489
482
486
497
495
487
498
509
504
496
510
515
505
498
511
510
500
498
509
505
496
497
505
502
495
502
509
505
497
506
510
502
495
507
509
502
498
509
509
500
499
510
505
495
497
504
498
489
499
504
497
489
502
507
500
495
510
509
498
498
508
502
491
495
502
496
488
495
502
496
482
487
483
467
456
464
464
454
449
464
461
452
455
470
470
462
470
481
476
469
481
488
484
476
491
496
487
485
501
502
494
499
518
530
540
560
578
563
532
520
517
510
505
519
523
515
508
520
521
513
509
524
522
514
520
528
523
516
522
528
525
518
528
536
529
522
537
540
532
531
546
544
536
540
551
546
538
544
550
544
533
539
540
532
520
528
529
518
510
524
523
513
512
522
517
504
507
513
505
497
503
506
500
491
501
506
500
493
506
507
497
495
508
504
495
497
505
500
491
496
500
494
483
493
497
487
479
490
490
481
475
487
488
478
480
493
490
481
488
495
491
481
491
498
494
487
500
504
499
495
511
512
502
504
518
514
506
511
520
518
511
518
523
521
509
519
520
509
499
512
513
501
500
522
534
542
558
565
543
509
498
500
495
489
499
504
493
483
495
498
490
488
503
505
496
498
509
506
499
504
514
509
501
511
516
510
504
515
517
511
504
516
517
510
510
523
524
517
522
534
531
518
519
519
504
490
496
493
481
472
480
479
471
467
480
481
472
472
484
480
470
478
487
481
474
487
491
485
481
492
492
486
481
491
491
483
482
495
494
485
489
500
496
484
495
501
494
488
501
504
496
493
506
507
502
503
516
514
506
509
518
515
507
516
525
519
509
520
523
516
508
521
521
513
507
518
519
511
510
518
515
504
507
512
505
495
503
507
500
492
501
500
490
486
500
504
509
527
554
559
541
520
502
487
477
483
486
478
469
477
478
467
461
474
473
465
462
473
472
463
460
466
457
444
448
454
448
438
450
455
449
444
460
463
456
458
472
472
463
466
475
471
462
467
473
468
459
469
474
468
461
473
475
466
461
471
469
460
460
470
470
464
469
478
476
468
477
484
481
475
487
492
486
483
497
498
489
488
499
496
488
492
503
500
492
498
507
502
493
502
508
501
493
505
508
501
498
510
510
505
506
515
512
505
511
521
517
506
508
509
491
476
486
486
474
467
478
475
466
465
474
471
463
465
475
472
462
469
479
474
468
488
508
518
528
546
535
503
482
489
488
485
489
500
498
490
494
500
495
484
492
497
492
485
500
505
499
499
516
519
514
517
528
528
521
527
535
532
525
534
542
539
531
543
550
544
538
552
554
545
541
552
549
538
539
548
543
533
538
546
540
530
540
544
536
527
539
541
531
529
543
541
532
533
544
539
528
535
542
535
526
537
542
534
526
536
537
528
522
532
531
521
521
531
527
518
524
531
524
515
523
527
520
513
525
527
519
515
528
528
519
516
526
524
513
514
523
516
503
510
513
503
494
505
508
500
495
507
507
496
492
500
496
488
488
498
496
489
494
503
500
494
510
526
535
540
552
541
509
481
487
488
478
476
483
473
461
462
469
466
456
465
472
467
461
474
479
477
476
492
498
495
496
508
510
500
502
517
515
506
515
523
518
514
526
531
527
520
529
530
518
508
519
513
502
499
506
503
492
495
505
499
490
502
508
504
497
507
512
503
497
513
515
507
507
519
519
511
515
527
524
515
523
528
522
514
524
526
516
505
513
509
499
496
508
510
502
506
518
516
509
517
527
525
518
529
538
533
528
542
544
536
531
541
541
531
529
542
538
529
535
542
540
533
541
548
543
534
547
552
546
540
552
551
542
535
543
537
524
524
532
526
516
522
528
522
510
523
532
538
549
578
587
571
546
536
525
514
518
530
525
516
522
527
523
514
521
527
522
513
526
528
520
516
528
528
522
522
531
530
522
524
533
530
521
528
535
529
520
531
532
523
518
528
525
517
512
520
518
508
506
513
507
496
501
506
499
490
501
503
496
491
502
501
493
489
497
495
489
488
496
493
484
487
495
489
478
486
490
481
473
484
485
478
474
485
484
477
476
486
484
475
476
484
481
471
478
486
481
473
483
487
481
474
486
488
479
474
487
485
475
477
486
483
474
480
485
477
467
475
479
471
465
476
476
468
464
476
474
466
465
474
470
460
462
469
463
453
459
465
458
449
461
463
454
452
473
488
498
513
524
505
472
459
462
458
452
460
466
462
454
462
465
457
450
463
465
458
456
469
469
461
464
475
472
465
471
477
474
468
478
482
477
470
482
487
482
478
490
491
484
482
492
489
479
484
490
485
476
483
488
482
475
486
489
481
477
488
488
481
480
490
488
483
486
495
492
487
495
501
499
495
506
510
505
501
511
513
505
504
511
507
495
494
501
495
487
491
495
489
482
489
493
488
483
493
495
491
487
496
497
492
492
501
500
495
499
505
502
496
504
507
503
498
509
509
503
499
509
510
506
507
516
513
506
509
517
512
501
506
511
504
496
505
509
504
499
509
513
513
521
547
563
561
547
530
507
494
498
508
505
498
508
512
507
500
504
498
478
466
470
466
457
453
463
462
452
455
464
459
454
462
468
466
459
471
478
473
471
486
489
486
487
500
502
497
499
510
509
500
505
514
510
501
512
517
511
507
518
518
513
509
522
525
520
520
530
529
521
526
535
530
523
532
540
535
532
545
552
548
546
560
563
557
556
568
567
560
562
567
560
550
553
554
544
529
529
524
509
497
505
503
495
491
501
501
492
493
504
504
496
502
512
508
499
511
517
510
503
516
519
510
507
520
518
510
512
524
523
514
517
527
524
515
520
524
515
505
516
519
511
506
519
518
510
509
525
534
544
561
578
567
537
518
514
508
498
509
514
506
498
512
514
507
503
517
517
508
509
521
519
512
516
523
518
508
516
521
515
506
519
522
515
510
524
522
512
510
522
519
510
511
520
514
502
506
511
501
489
496
497
489
481
490
490
482
478
487
487
480
480
487
485
477
483
489
484
476
487
491
484
478
488
487
475
469
477
473
462
458
467
462
451
455
462
457
449
461
469
466
457
468
468
456
450
460
458
448
446
456
452
446
449
457
455
448
455
463
460
453
465
469
466
461
474
477
474
474
486
486
483
487
498
497
491
499
506
500
492
502
505
498
489
502
505
499
494
506
504
495
491
499
496
487
489
495
493
484
491
497
491
486
504
516
526
536
549
535
503
477
478
476
474
479
489
485
476
484
489
484
478
491
496
490
485
500
503
497
497
508
509
502
503
511
508
500
503
507
503
496
506
515
510
503
514
516
509
506
517
516
505
501
505
499
490
492
500
498
492
499
503
498
492
502
504
495
489
498
496
487
483
490
486
477
476
485
479
471
476
480
476
469
479
483
475
468
476
478
471
468
480
479
471
471
479
479
472
478
485
481
474
480
483
477
468
476
477
469
463
471
469
459
456
465
459
450
453
460
456
446
451
455
452
446
457
459
452
447
459
462
456
454
466
465
458
459
468
466
460
467
475
472
468
480
487
486
483
494
498
493
489
500
498
491
489
495
488
475
475
481
476
467
473
480
485
495
525
539
527
500
488
477
470
471
485
485
478
480
489
488
480
488
495
490
483
491
493
486
479
489
490
481
475
486
486
479
481
492
492
485
493
502
501
496
508
517
512
505
511
505
491
483
490
484
472
468
478
475
465
468
479
476
468
477
485
483
480
494
501
498
497
511
513
509
509
523
526
521
526
538
537
532
539
546
542
531
541
544
536
527
537
538
531
529
540
540
533
532
540
534
523
526
530
523
513
519
523
515
507
516
517
510
506
517
517
510
508
521
522
515
519
527
523
514
521
526
519
511
520
523
518
513
524
524
518
514
525
526
520
522
532
531
524
528
534
529
519
527
529
522
513
523
526
520
516
528
534
539
557
583
587
569
552
535
518
506
511
516
509
499
506
506
500
494
506
507
501
504
518
519
513
516
523
519
509
516
523
518
513
523
527
522
516
529
531
525
523
534
534
528
529
538
534
527
531
535
530
520
529
534
529
524
537
539
533
530
541
538
526
520
524
517
508
506
509
502
493
502
507
502
494
504
505
497
489
499
500
494
493
504
503
492
496
503
499
494
501
508
505
500
509
511
505
498
508
506
498
492
500
498
491
490
500
499
490
494
501
495
484
491
494
489
483
494
496
487
481
489
485
476
471
479
473
461
460
468
465
457
465
474
472
465
468
460
443
424
426
423
410
404
419
423
422
430
446
450
450
461
477
488
500
531
554
547
523
513
501
494
493
511
514
508
509
518
513
505
509
519
516
509
515
518
508
499
509
514
509
508
522
525
521
520
529
526
516
517
526
524
518
526
533
529
521
532
537
532
529
537
534
524
513
519
516
503
498
502
497
486
489
497
493
485
494
497
490
481
490
494
489
489
504
507
503
504
513
506
494
491
493
485
473
475
476
468
460
471
474
468
462
473
473
468
466
477
478
471
473
482
478
470
476
482
477
471
481
487
482
475
486
487
480
476
488
488
481
482
492
490
482
487
494
489
482
489
494
487
480
490
494
490
486
498
499
492
490
500
496
487
489
499
496
489
497
503
500
494
504
512
517
530
558
571
561
538
520
501
485
482
489
485
475
478
485
481
475
486
491
486
479
490
491
483
478
488
488
480
480
490
487
481
483
491
489
482
489
495
491
484
497
502
497
492
505
507
499
497
508
503
493
495
502
498
491
493
494
485
474
481
484
479
474
486
489
483
479
490
490
484
486
498
496
489
494
502
498
491
499
504
495
486
497
498
491
488
498
497
489
488
499
498
491
496
507
503
495
501
503
495
484
493
496
490
487
499
502
498
499
512
513
509
512
522
520
511
516
521
513
505
511
512
505
498
508
510
504
501
513
516
509
511
522
522
517
524
533
526
518
525
532
528
525
541
554
566
577
594
586
556
528
525
523
517
522
532
528
519
525
528
520
508
511
515
509
499
508
501
485
476
482
477
467
467
478
476
468
475
483
482
478
488
495
492
489
505
513
509
508
524
528
522
524
534
531
522
526
532
528
520
525
528
520
511
517
517
508
502
514
514
507
506
517
519
512
513
521
516
503
507
509
501
490
497
499
491
487
500
505
499
498
509
510
504
507
519
520
515
522
533
530
522
529
534
530
524
536
538
532
526
539
539
531
531
539
538
530
533
541
535
527
531
534
525
512
517
516
507
499
507
505
498
495
507
508
502
502
511
508
509
526
536
529
506
490
475
464
460
472
474
465
459
466
463
454
454
465
464
459
465
474
473
466
474
478
473
466
478
485
485
486
503
510
505
507
520
519
514
523
532
531
524
533
541
537
531
538
540
529
520
530
529
520
513
517
508
492
488
488
480
468
470
477
475
470
483
493
488
482
491
491
483
479
489
487
480
478
487
484
476
479
487
482
475
481
486
478
469
475
474
464
456
465
464
456
456
466
465
460
462
472
470
463
470
480
477
474
486
490
484
478
489
487
477
468
475
470
460
457
465
462
456
459
465
462
456
465
470
467
463
475
477
470
465
476
477
470
469
480
485
488
508
535
542
520
497
471
452
443
460
464
455
446
457
458
450
447
459
458
451
455
467
466
461
469
477
474
468
481
490
490
489
506
515
512
514
529
531
528
531
544
545
540
546
553
549
541
545
547
537
526
535
536
528
523
534
535
530
528
539
538
532
536
543
536
524
525
528
524
518
529
534
530
528
536
537
528
526
540
537
532
532
542
538
530
533
538
532
523
529
531
521
510
519
521
515
512
523
521
512
507
510
500
484
479
479
468
454
456
458
450
439
447
448
440
434
447
450
443
442
455
455
451
454
467
467
462
472
481
479
475
487
494
490
482
495
499
495
495
511
513
507
512
527
526
521
528
537
533
525
534
538
531
524
535
539
534
531
544
547
545
551
576
596
605
616
613
587
554
549
553
550
545
556
558
551
547
558
560
553
549
560
560
553
554
563
561
553
559
566
560
552
563
568
565
559
568
567
557
548
554
549
536
535
543
542
534
538
546
541
532
537
538
530
522
530
532
520
510
513
506
492
487
496
495
489
493
506
506
502
512
521
517
511
521
520
512
500
505
500
488
482
491
492
486
489
500
499
493
498
507
503
495
504
507
501
492
501
503
497
494
505
504
497
495
505
503
496
499
506
502
494
500
506
499
490
498
498
490
483
492
492
484
482
492
491
485
487
496
494
486
492
497
491
483
493
495
487
480
490
490
483
480
491
491
485
483
491
487
478
477
482
473
464
469
468
456
442
450
447
437
430
443
450
458
473
495
489
462
440
434
429
424
436
447
447
444
458
464
461
457
469
471
466
464
476
476
470
472
485
486
481
489
498
497
491
502
509
505
500
513
516
510
509
523
525
521
524
535
533
525
526
532
527
519
527
533
527
517
523
524
510
499
501
492
479
476
485
481
472
474
483
480
475
483
490
486
480
493
499
492
488
503
505
498
499
513
513
507
511
524
524
520
526
537
533
526
537
543
538
531
544
544
537
533
545
546
538
537
549
548
539
543
554
552
543
554
563
558
553
565
570
565
561
576
577
573
573
587
588
584
587
597
596
589
593
601
598
588
594
599
591
582
592
595
587
583
594
594
585
588
607
619
627
642
648
627
595
588
593
591
588
601
605
599
595
607
607
600
600
608
603
595
594
602
598
589
593
598
591
584
591
594
585
578
589
588
581
578
586
582
574
575
580
573
562
564
564
556
545
548
545
534
524
532
530
520
511
517
512
501
498
502
496
487
486
490
484
474
477
479
474
466
473
474
467
463
473
473
467
465
472
468
461
461
467
462
452
455
460
454
445
452
454
449
444
454
453
445
441
450
448
440
438
444
439
431
433
438
434
428
437
442
436
430
442
444
439
436
447
449
445
447
457
456
449
452
461
459
452
458
462
457
451
462
466
461
455
465
465
459
458
469
467
461
461
467
465
459
463
466
460
452
458
461
455
449
458
459
451
447
458
458
452
451
460
461
465
487
513
523
515
502
482
461
448
456
458
451
445
454
453
445
445
457
456
450
453
460
458
451
457
463
459
454
464
468
464
459
470
471
467
465
476
476
473
475
482
480
475
478
483
478
470
475
475
466
453
455
451
440
432
438
435
424
420
428
425
418
423
430
428
424
432
440
438
432
441
443
433
425
431
428
419
418
431
432
425
428
438
439
433
440
448
448
443
455
460
455
450
463
465
460
457
468
469
462
462
471
471
467
473
481
480
475
485
491
488
483
495
498
494
491
504
505
499
498
509
509
505
508
516
514
508
517
524
520
514
526
530
524
518
529
530
524
521
530
530
526
529
539
537
530
536
544
541
533
540
545
542
537
547
549
542
540
551
549
542
542
551
549
543
548
554
550
542
548
555
558
567
594
610
606
587
571
549
534
530
541
541
535
536
544
540
534
540
547
543
537
546
547
541
534
541
539
532
531
542
541
536
536
542
540
532
535
541
538
531
538
542
538
532
542
541
530
524
531
525
515
511
515
511
503
503
507
502
495
501
504
500
493
500
501
497
492
500
500
494
491
497
494
487
489
495
493
487
492
497
492
485
491
491
484
475
480
475
462
453
458
454
445
445
452
450
444
448
456
454
447
454
458
453
447
457
460
456
454
466
468
462
463
473
472
467
472
479
479
474
481
487
484
480
489
494
492
487
499
502
495
494
505
505
500
504
514
514
510
517
523
518
510
514
514
505
494
496
490
481
475
483
480
471
468
472
467
459
464
475
484
495
518
529
517
490
477
470
465
463
474
475
466
464
471
470
465
470
479
478
471
477
484
480
475
484
487
485
483
495
496
493
492
504
505
501
503
511
507
497
498
502
498
490
498
502
498
491
497
496
488
480
488
486
479
478
484
481
474
475
479
475
469
477
485
483
479
488
491
487
483
494
498
493
492
502
501
496
500
508
506
498
502
505
500
490
498
502
498
494
504
508
501
498
508
505
499
499
507
505
499
504
512
508
503
511
516
511
506
516
518
513
508
518
520
514
513
522
521
513
516
523
520
513
518
522
517
513
521
525
520
514
523
523
515
511
520
519
510
510
518
516
510
514
520
514
506
514
517
512
507
518
520
516
514
528
537
545
556
570
555
524
492
474
458
446
455
458
453
444
450
450
444
441
452
455
451
452
464
464
461
466
476
477
474
483
492
491
489
501
511
508
506
521
525
521
521
533
535
531
533
544
543
536
540
545
540
531
536
537
530
522
529
531
523
519
529
529
523
523
532
530
524
528
534
530
524
530
536
531
524
532
534
529
525
536
538
531
529
538
535
528
530
537
535
529
535
539
533
526
533
535
529
523
531
531
524
520
529
525
518
516
522
519
510
514
519
515
509
515
518
514
509
518
520
514
510
520
519
513
513
520
516
506
503
502
494
482
483
484
477
469
476
478
472
466
476
475
467
460
465
461
450
447
448
440
431
432
434
429
421
429
433
423
417
432
447
461
478
504
502
477
455
451
445
440
446
456
455
452
462
470
468
464
476
481
478
475
488
489
482
481
491
489
484
490
501
499
494
500
506
501
495
504
510
507
506
519
523
516
512
517
515
506
507
515
511
505
506
510
505
498
504
509
506
502
513
513
506
500
508
507
502
505
514
515
509
511
516
508
497
498
499
491
483
490
493
487
484
495
496
487
487
493
489
482
486
493
491
488
498
503
500
490
500
508
507
503
508
498
479
459
453
440
426
420
424
416
406
410
416
410
403
413
418
414
411
426
432
430
433
451
460
459
463
479
485
486
496
509
509
503
512
521
520
517
528
532
528
527
542
546
542
542
554
556
552
560
572
570
564
568
570
563
552
557
557
552
547
557
559
555
560
585
599
602
596
585
556
535
539
548
547
543
555
562
559
555
569
575
571
566
578
576
566
565
577
581
579
585
596
595
592
603
609
604
596
608
610
604
599
609
611
606
604
612
611
602
602
611
608
601
605
611
607
600
606
605
595
587
593
592
584
579
588
586
578
573
579
576
567
568
575
570
564
573
576
572
565
573
574
568
563
572
573
567
565
573
573
567
570
577
572
564
564
565
557
550
557
561
556
551
560
559
552
549
556
555
547
545
548
539
527
527
529
521
507
509
509
502
496
505
505
501
499
509
511
507
506
514
512
510
515
521
517
502
499
488
470
456
458
458
451
444
451
449
442
440
449
450
453
469
492
501
495
482
461
439
427
436
441
439
435
444
446
441
439
449
448
444
445
454
454
451
459
467
467
463
470
475
474
470
476
474
462
453
458
456
448
447
455
454
448
451
456
452
445
449
450
441
431
436
437
429
