531
535
531
528
528
528
530
535
531
527
526
526
533
531
527
527
531
531
527
532
536
531
525
520
515
511
505
509
533
566
608
633
628
604
576
551
537
532
532
530
528
527
523
525
529
524
519
520
520
526
527
521
519
518
521
522
523
523
521
523
522
523
525
523
521
518
518
517
525
527
520
519
519
525
527
521
521
522
525
525
527
530
527
527
526
525
528
529
526
527
523
524
531
533
531
525
526
528
530
528
525
525
526
525
523
526
527
520
520
518
520
525
522
517
516
516
518
521
519
515
514
516
518
519
516
515
516
514
512
515
518
514
508
508
510
515
514
507
506
505
506
508
509
508
504
506
507
511
509
508
507
503
502
502
508
509
501
501
500
502
505
499
498
496
498
497
498
498
491
483
472
470
473
489
514
547
575
579
572
550
516
494
485
483
491
488
483
483
483
484
483
486
485
480
476
477
481
484
480
479
479
478
480
486
484
479
478
481
484
483
483
484
484
481
482
488
489
485
482
482
484
489
489
484
484
484
485
489
487
485
485
487
487
489
490
488
488
486
489
485
491
492
487
485
489
492
492
485
484
485
486
486
489
491
488
488
488
490
491
489
489
488
487
486
492
493
488
491
488
492
494
491
489
490
491
492
492
493
493
491
488
487
491
496
491
487
486
487
489
493
491
489
488
490
496
496
494
493
492
490
489
494
498
494
491
492
496
498
495
492
492
492
493
496
492
483
473
470
469
484
508
544
572
580
567
552
530
506
492
492
492
497
497
491
490
490
493
493
495
496
495
495
492
495
497
496
494
492
494
493
499
498
495
494
494
498
499
497
496
497
499
498
498
502
502
500
498
501
506
508
504
502
502
501
503
509
505
502
502
505
506
506
503
504
503
500
501
507
510
506
504
504
507
510
508
504
504
506
507
511
510
507
508
508
510
510
509
509
509
510
508
512
516
513
509
508
508
516
514
507
510
510
513
515
516
515
514
511
511
514
515
514
514
511
510
511
519
519
511
510
509
515
516
512
515
514
515
516
518
520
516
516
513
514
517
518
516
512
512
512
517
517
513
513
512
514
516
510
494
489
489
498
527
566
601
609
598
578
554
532
516
511
512
514
511
515
511
507
508
509
509
508
506
507
508
504
504
510
514
509
506
507
507
511
510
505
505
504
508
512
512
510
511
510
507
511
513
511
512
510
512
514
520
520
514
514
514
522
523
518
515
519
518
516
520
521
516
517
515
518
519
518
517
515
515
514
521
522
516
514
515
519
521
517
517
517
516
513
517
519
518
514
515
515
518
520
518
516
514
514
517
521
519
515
518
517
519
521
517
516
518
516
514
519
523
518
516
516
518
522
519
516
515
515
517
521
521
518
520
521
521
524
522
522
521
516
515
520
524
521
515
517
516
520
521
515
514
515
514
511
508
500
490
488
494
520
558
595
610
604
583
556
536
520
511
512
513
512
513
507
505
507
506
505
507
509
509
507
504
504
510
512
508
506
506
505
509
513
508
505
507
507
508
508
508
507
508
505
507
515
515
511
509
512
516
519
518
514
514
514
516
521
518
515
518
518
518
519
518
519
517
517
517
521
525
521
517
516
516
522
520
514
515
518
517
515
522
519
519
518
517
521
521
519
519
517
516
517
524
524
516
516
517
521
520
516
516
518
518
516
521
523
520
520
518
518
521
522
520
517
517
518
523
523
518
516
518
517
520
518
515
517
518
517
517
520
521
518
514
514
522
521
517
512
512
513
513
515
515
510
512
512
513
509
498
491
485
483
497
527
566
586
587
579
561
540
518
505
503
503
504
504
505
501
503
503
500
503
504
503
499
499
499
499
505
506
500
499
501
504
503
498
497
499
499
496
502
503
503
501
499
503
504
504
502
502
503
504
509
514
508
506
508
510
510
509
506
509
508
507
510
513
513
510
510
508
511
513
510
509
506
509
510
512
512
509
512
511
512
513
510
510
511
509
509
513
515
512
508
508
511
516
512
508
508
511
511
512
513
510
511
510
510
514
513
513
514
511
511
512
517
513
508
511
511
515
512
508
509
511
509
509
513
512
509
509
507
509
509
508
507
503
502
502
508
508
502
502
503
502
493
484
476
480
495
519
555
580
584
573
548
523
507
498
494
491
491
492
492
493
491
490
491
492
494
494
489
492
491
489
491
496
499
495
493
493
497
499
496
494
493
496
496
499
500
498
497
498
498
499
499
499
499
496
498
502
507
502
500
500
503
506
503
499
499
502
502
503
505
504
505
504
501
505
504
502
502
500
500
502
508
507
502
501
502
507
506
502
502
505
502
501
507
508
504
503
502
505
507
507
506
503
503
506
511
509
505
504
507
507
508
508
507
508
508
507
509
514
510
509
506
505
511
513
508
507
509
513
513
516
514
510
512
511
512
512
508
511
512
509
509
513
516
511
507
510
513
512
500
491
485
485
495
519
557
588
604
599
578
554
527
513
509
508
507
511
512
505
502
503
506
509
507
504
503
505
505
503
508
507
506
503
503
507
508
508
506
503
503
506
510
508
503
503
505
509
508
507
505
509
510
507
511
514
513
513
511
514
518
518
514
514
513
516
519
519
517
515
517
516
516
518
514
516
516
513
515
520
522
518
516
515
520
521
516
515
515
518
515
519
520
517
519
518
518
520
518
518
518
518
516
523
525
521
519
520
522
524
520
518
517
520
519
520
524
522
522
521
519
523
523
521
521
517
516
521
526
522
519
520
524
527
524
520
519
521
521
520
524
524
522
521
517
519
523
520
515
514
519
519
519
510
499
492
493
505
532
570
600
615
606
581
555
533
517
515
512
511
516
514
506
507
507
508
508
511
510
505
507
508
511
509
506
509
508
505
508
511
510
502
502
502
506
507
503
503
503
505
505
507
508
504
507
507
506
511
512
512
510
509
510
516
517
512
510
513
512
516
514
510
510
514
513
511
514
513
512
510
508
513
515
511
509
508
507
509
513
515
506
505
508
512
510
508
508
510
509
508
513
514
510
508
508
509
514
513
508
508
508
510
513
512
509
508
510
509
515
513
509
510
511
512
510
515
514
508
507
509
514
515
510
510
511
514
514
515
516
510
512
513
513
514
513
513
512
510
509
516
518
510
510
511
515
512
501
492
485
486
499
525
567
600
608
599
574
549
527
511
506
506
506
507
508
504
498
498
501
505
504
501
500
502
503
499
502
506
503
499
498
503
505
502
498
498
498
499
503
502
499
498
500
503
502
502
500
503
503
500
504
510
508
504
504
505
511
512
506
507
509
509
511
511
510
508
508
508
509
512
511
510
507
507
506
512
512
507
505
504
509
511
507
504
505
508
507
508
513
505
506
505
505
509
508
505
503
503
502
508
508
503
500
500
504
507
506
502
501
503
503
502
505
506
502
499
499
503
507
505
502
502
502
504
508
504
499
498
500
503
505
500
498
500
500
498
501
503
500
497
494
491
485
477
471
482
504
540
575
586
577
557
533
506
499
496
495
496
493
491
491
498
496
490
492
490
496
496
490
494
490
493
493
495
495
492
493
492
492
494
494
494
492
492
493
498
499
493
494
493
497
500
498
496
496
499
500
501
502
503
502
498
501
503
506
502
500
501
501
505
508
505
502
501
503
507
504
501
502
504
503
501
506
508
504
501
502
506
509
507
504
504
504
507
512
510
506
506
508
506
509
508
508
509
507
506
509
513
510
506
505
504
511
512
506
505
505
507
507
509
509
507
508
505
511
514
513
512
510
507
506
513
513
508
503
504
510
511
506
505
504
505
505
507
507
499
491
481
477
480
495
520
550
574
579
576
559
526
504
495
494
499
498
494
493
492
491
491
495
496
493
490
489
493
497
493
489
490
492
495
498
496
492
491
492
496
495
493
495
496
494
497
497
502
498
495
495
498
504
502
498
500
504
503
506
506
504
504
505
503
506
507
508
507
504
505
507
513
512
506
506
506
513
513
507
507
508
512
512
514
516
514
514
511
514
516
516
514
511
513
512
518
520
515
514
514
518
520
517
515
518
519
517
523
524
524
523
520
521
524
527
524
521
521
522
526
531
528
526
528
531
536
534
532
535
535
532
534
537
541
539
536
536
539
544
541
537
537
541
539
534
526
517
520
532
556
597
626
633
624
604
572
552
547
544
540
537
535
540
538
531
530
529
529
532
533
532
530
529
526
528
527
526
526
522
522
523
530
529
521
525
521
525
525
521
523
521
521
519
524
525
524
524
521
522
526
528
525
521
522
523
528
528
523
521
520
520
524
522
518
519
519
516
516
519
522
517
513
514
516
517
511
508
508
507
509
514
514
508
509
510
508
509
508
508
509
504
504
508
512
508
505
504
505
510
509
503
503
504
506
507
510
507
508
507
504
508
509
505
508
507
509
510
518
517
510
508
508
514
512
508
506
509
508
507
511
513
510
509
508
508
506
498
489
480
483
499
536
577
598
604
590
565
537
515
506
508
507
503
503
504
504
502
503
499
503
506
502
498
499
498
499
503
501
498
497
498
499
501
498
499
498
496
495
499
503
498
495
496
500
505
500
499
500
503
503
506
507
504
506
506
505
509
509
509
510
507
510
510
515
513
507
508
510
514
514
508
508
510
510
508
512
513
510
510
507
511
513
514
513
510
510
509
516
517
511
511
513
516
518
516
514
516
517
514
517
520
519
517
514
514
519
519
517
515
516
516
519
524
521
518
520
521
522
522
520
523
522
523
520
525
528
523
520
520
522
525
522
519
518
521
521
518
512
499
499
503
520
553
583
604
604
589
566
544
530
522
517
517
518
522
518
514
514
516
516
515
519
519
519
518
516
520
521
520
520
518
517
517
524
526
518
519
522
523
525
523
523
525
524
521
528
530
529
529
528
530
532
535
534
532
531
532
536
539
536
533
536
536
537
538
535
537
537
533
535
538
540
536
531
531
537
540
537
534
534
535
535
537
538
533
534
534
534
534
532
533
532
529
529
533
535
530
526
526
528
531
526
524
524
525
524
527
526
522
522
521
518
521
521
520
521
519
519
518
520
522
516
513
514
517
515
507
505
508
508
505
510
510
507
505
500
496
488
481
478
485
505
535
571
581
570
553
531
509
495
489
486
487
485
481
484
485
483
480
477
476
479
483
480
476
475
477
477
478
478
474
476
475
475
477
473
471
472
470
469
473
475
471
469
469
474
476
474
470
470
473
473
473
474
470
471
471
471
473
471
471
472
469
468
473
473
470
465
465
466
469
466
464
463
464
464
462
465
463
462
463
459
461
461
461
462
458
458
460
465
464
461
461
462
464
463
460
458
460
461
459
463
466
463
462
459
460
461
461
458
456
457
459
461
461
460
459
462
463
465
466
462
464
463
460
461
465
466
462
461
460
465
465
461
461
460
460
462
463
459
447
442
436
440
458
486
524
552
552
539
520
495
472
463
461
465
468
464
460
460
462
462
463
465
464
465
464
462
467
468
467
465
465
465
467
472
470
465
466
469
473
472
470
471
474
474
473
478
482
480
481
480
483
486
486
487
484
485
489
493
493
490
491
493
494
495
495
492
494
495
494
497
501
500
499
497
497
502
502
497
497
497
500
501
503
504
502
504
504
505
509
504
505
506
503
504
508
511
505
504
506
512
514
508
507
506
508
508
510
511
506
508
507
506
510
510
512
510
507
508
514
515
510
512
508
510
515
515
513
514
515
515
513
516
516
515
513
510
513
515
513
511
512
513
515
518
517
515
508
503
498
489
486
500
526
564
595
612
605
581
550
523
512
516
516
512
507
505
507
510
510
505
504
507
506
507
508
505
508
508
505
507
510
509
504
504
504
508
512
506
506
506
508
508
510
511
508
510
511
515
516
514
516
518
516
517
522
524
519
518
522
522
525
521
518
518
521
520
521
524
522
522
523
519
521
523
520
520
516
516
520
525
521
517
517
520
524
522
519
517
519
519
517
521
521
519
520
518
520
525
522
519
520
520
523
527
525
521
520
522
523
525
524
521
524
524
521
523
528
525
520
520
520
526
525
520
521
521
523
524
527
527
523
526
527
526
527
523
526
525
522
523
530
529
522
522
521
526
527
522
520
520
520
514
506
501
495
504
524
554
591
608
601
582
558
536
524
522
517
516
515
516
519
516
510
510
513
513
511
517
517
514
513
511
515
518
514
511
513
512
514
520
517
515
513
516
517
517
515
514
516
515
513
517
520
516
513
513
515
521
520
516
514
514
515
517
517
517
515
516
516
517
518
516
515
515
513
512
518
519
511
510
510
516
517
512
511
512
515
514
516
517
515
515
515
514
515
515
514
511
511
512
518
520
515
513
513
515
518
516
514
511
513
514
514
517
519
516
515
513
515
519
514
509
510
511
512
517
519
514
514
515
517
516
511
509
512
513
510
515
518
513
509
509
512
515
513
508
508
503
497
494
487
483
494
521
555
582
590
580
561
533
510
504
506
505
499
498
496
500
501
495
495
495
497
497
499
499
496
498
497
498
500
498
496
495
494
495
501
502
497
497
496
501
503
499
497
498
500
499
500
504
504
502
500
501
504
506
502
501
500
499
503
506
502
502
499
502
506
505
502
504
503
502
500
504
507
503
500
499
502
506
504
500
499
499
502
506
507
501
501
502
504
504
503
504
504
503
503
506
509
506
502
501
502
506
509
503
502
503
506
508
508
506
502
505
506
506
506
505
505
502
503
503
511
511
504
504
505
511
513
508
507
505
506
508
508
509
507
506
503
507
507
507
505
502
502
502
507
507
497
488
481
479
487
503
531
570
597
594
581
559
531
508
499
501
505
506
500
499
495
495
496
502
500
497
494
496
500
499
496
498
498
495
495
499
502
496
495
495
496
500
499
495
496
496
498
501
501
500
500
501
502
506
505
505
505
503
504
506
512
510
505
504
503
509
510
503
502
502
504
504
506
507
505
504
504
506
506
506
505
505
502
502
508
509
506
501
502
506
508
504
506
504
505
505
508
513
507
507
505
505
509
512
509
507
508
509
513
515
510
507
507
510
513
512
508
511
510
510
508
513
515
511
509
509
511
515
513
511
512
512
514
518
518
513
513
513
515
516
514
513
515
512
511
516
519
515
511
508
501
497
491
487
501
527
570
605
612
598
573
543
516
511
513
510
510
505
504
502
507
503
499
499
497
503
504
500
500
502
502
499
503
504
502
501
499
505
504
503
501
500
500
501
506
508
502
501
501
506
509
506
504
508
508
507
511
515
515
513
511
512
516
520
518
514
514
514
518
522
519
514
517
516
517
518
515
516
516
514
515
518
520
517
514
514
516
519
518
514
515
516
517
522
521
517
518
518
518
525
518
517
517
516
516
519
524
521
516
516
518
521
522
516
515
517
515
514
517
517
516
512
513
516
518
518
514
511
510
510
517
517
510
510
509
513
514
508
507
509
509
507
510
511
508
499
487
483
485
498
517
549
582
592
592
574
543
519
509
506
508
509
506
507
506
503
505
509
511
507
504
504
509
508
504
502
502
503
505
516
517
513
515
516
515
516
513
515
514
512
514
520
523
518
516
517
519
524
524
520
520
521
522
522
523
519
520
520
519
523
523
521
522
523
520
521
527
526
521
521
521
528
528
523
526
527
527
523
527
527
525
524
521
523
524
522
521
518
519
520
528
527
521
520
521
522
522
520
517
519
519
516
521
521
520
518
516
516
517
520
517
514
514
515
517
520
518
516
518
519
519
519
514
515
516
513
512
516
519
513
508
508
512
515
511
502
494
488
484
491
509
535
567
588
589
579
556
529
511
502
501
506
509
504
499
498
499
502
501
496
495
497
496
498
498
496
496
496
497
498
499
498
495
492
489
488
495
496
490
489
491
494
493
491
494
496
497
495
500
504
502
501
500
503
509
505
504
502
502
505
508
508
505
504
508
508
509
510
506
508
510
506
509
512
514
511
510
510
513
516
513
509
510
512
512
515
515
510
511
508
510
513
509
511
511
509
509
514
516
514
512
509
514
516
512
512
509
511
511
512
514
510
512
514
514
518
517
513
514
511
510
511
517
513
511
510
511
515
514
512
509
510
509
507
509
503
491
484
481
496
524
558
591
599
591
572
548
522
504
501
503
503
502
499
495
496
497
495
499
500
498
497
496
494
499
501
496
493
493
495
496
498
497
496
495
496
498
497
498
497
497
494
493
498
501
496
493
494
500
500
498
497
497
499
500
503
504
500
503
503
503
505
503
503
503
501
501
504
508
506
504
501
504
509
507
504
503
506
505
505
508
511
507
506
504
508
509
508
509
507
506
509
513
512
507
506
509
512
511
509
507
509
510
508
512
511
510
509
507
510
513
512
509
512
509
513
516
514
514
509
511
510
511
513
513
510
511
509
511
514
516
514
510
510
513
506
492
485
485
496
520
559
598
613
607
585
558
532
519
514
515
511
509
514
513
506
504
504
507
510
506
504
503
505
505
507
508
504
503
501
501
504
505
504
504
502
501
504
506
503
500
501
503
508
508
504
504
507
510
508
513
515
514
513
510
513
517
515
511
515
510
513
518
517
513
512
515
518
518
516
513
514
513
510
513
515
513
511
510
511
517
517
512
512
511
514
515
517
515
511
513
512
512
514
510
511
512
511
510
516
516
510
509
508
513
514
510
508
507
511
511
514
516
514
516
516
515
517
517
514
514
511
509
514
517
512
510
509
512
517
517
511
511
511
504
494
492
490
498
519
550
587
604
595
574
548
522
514
513
511
505
505
505
506
506
503
502
503
502
500
505
506
505
504
500
501
505
503
498
500
498
501
504
504
501
499
501
501
504
504
500
500
501
499
501
508
507
502
504
504
511
512
507
506
505
507
505
510
510
506
508
507
508
510
508
507
507
505
506
512
513
506
505
505
509
511
508
505
504
504
507
507
509
507
507
506
504
507
510
506
503
504
503
506
511
509
507
506
508
512
512
509
508
510
511
509
516
518
514
514
514
518
521
517
513
513
512
514
518
516
512
510
512
513
513
512
507
503
495
486
485
494
507
535
569
587
593
580
552
525
510
507
506
509
509
506
507
505
506
509
506
506
505
504
503
507
509
501
502
502
508
510
505
504
505
508
508
510
512
509
512
514
517
517
520
519
517
517
518
524
528
523
520
520
519
525
523
519
518
519
519
517
522
525
521
521
518
521
525
522
519
518
519
521
526
524
521
519
520
524
523
520
518
521
523
520
522
526
523
520
520
522
527
525
520
522
518
520
523
524
520
521
519
518
519
520
517
517
516
517
519
522
522
515
514
513
519
519
513
511
511
514
513
513
514
509
509
508
509
507
503
492
480
474
476
490
517
551
582
591
585
564
532
507
497
496
497
497
497
495
490
486
487
490
492
488
484
488
485
486
491
489
484
484
486
489
487
484
483
484
484
482
486
490
487
486
485
488
492
491
487
487
487
490
494
493
491
489
492
492
495
496
494
494
493
494
495
501
500
496
495
495
501
501
497
495
495
496
496
498
499
495
496
495
496
496
495
494
491
491
490
496
497
491
490
489
493
496
493
491
491
493
493
494
495
494
494
492
491
498
497
493
491
492
496
496
499
496
492
492
494
495
495
492
492
492
492
489
493
496
491
488
489
492
494
484
473
466
465
475
501
542
574
592
591
573
548
516
500
496
495
494
499
497
493
488
487
486
492
490
486
486
485
488
488
490
491
488
488
487
489
490
488
487
485
486
484
492
492
486
486
488
489
492
489
489
489
492
494
497
499
499
498
497
500
503
504
502
501
501
500
506
508
504
502
502
504
508
507
505
506
506
504
504
507
509
504
502
501
505
508
504
501
500
500
502
507
506
503
502
503
504
506
503
503
503
502
501
505
509
505
502
502
503
508
508
504
504
504
505
510
511
509
509
509
507
510
511
510
510
508
510
510
518
519
513
518
515
520
522
516
512
505
500
495
495
506
529
566
598
615
609
589
560
532
520
515
521
523
517
513
511
514
518
514
509
510
511
508
509
513
513
509
506
506
509
512
507
503
500
499
500
505
505
499
498
501
506
507
509
509
511
513
512
512
513
505
501
501
503
506
507
501
501
501
504
508
508
506
508
509
507
511
511
509
507
505
507
506
511
510
505
505
505
511
512
506
506
506
507
507
510
510
507
506
505
508
509
508
507
505
505
505
512
514
507
505
504
508
510
507
505
508
509
508
513
515
514
512
508
508
511
513
506
504
504
504
507
509
506
503
503
504
509
508
503
500
491
482
477
482
500
521
552
576
586
576
551
522
505
498
499
502
500
495
494
493
492
495
493
493
493
490
489
492
496
493
489
490
489
495
496
491
490
490
493
492
494
492
490
491
488
492
493
493
493
492
492
492
500
501
495
494
493
498
500
495
493
495
495
494
498
498
497
493
493
494
496
497
495
496
493
492
497
500
495
493
494
495
497
497
494
494
496
495
497
500
501
495
495
495
498
501
496
495
495
494
497
500
502
497
499
499
500
502
500
500
499
497
498
502
505
500
497
497
496
500
498
495
496
498
497
499
500
497
497
496
494
497
497
494
485
477
471
470
482
500
530
568
588
593
576
542
515
500
495
494
497
496
491
490
487
489
490
489
486
486
486
485
492
493
489
487
488
491
491
490
488
490
490
489
492
495
493
492
490
492
492
491
484
484
484
484
489
492
492
490
492
493
495
496
493
496
496
496
494
499
502
498
496
496
498
502
500
497
498
500
500
502
503
500
501
500
500
502
500
500
500
499
500
504
508
506
502
502
502
508
508
503
502
505
506
506
511
507
506
506
504
508
510
508
508
506
506
506
515
517
510
510
512
514
514
512
512
514
513
510
515
516
515
514
512
513
515
515
515
515
506
498
495
493
494
515
548
590
616
617
595
569
539
518
516
519
519
514
509
507
510
512
508
506
507
508
508
514
512
507
508
508
509
512
507
508
508
506
506
512
513
509
506
506
509
509
508
506
506
508
508
512
513
510
512
513
514
517
518
518
518
517
517
520
524
523
519
521
519
522
521
517
516
519
520
517
523
523
522
519
520
522
522
521
520
518
518
519
526
526
525
521
523
526
527
526
525
526
526
523
527
528
525
525
523
524
526
527
523
522
522
524
527
527
524
522
523
523
525
527
523
525
527
526
527
531
529
526
523
523
529
529
524
523
521
523
522
524
524
519
519
519
517
512
499
493
492
500
519
559
598
611
604
584
560
535
516
510
511
512
510
509
511
508
505
505
502
506
506
502
504
501
501
505
506
504
501
500
501
502
502
498
498
500
500
498
501
502
500
500
498
501
503
503
503
503
502
504
509
510
510
506
509
513
514
516
509
512
512
509
512
513
508
509
506
506
512
512
506
506
506
508
511
512
510
508
509
509
510
510
508
507
507
506
506
511
510
508
505
506
512
513
510
507
508
510
510
515
513
508
509
508
509
516
510
510
510
509
509
514
515
510
509
509
513
516
515
513
511
515
513
512
514
512
511
511
508
511
512
511
509
506
506
507
512
509
504
498
491
488
483
485
502
534
568
585
589
575
549
523
505
501
503
502
497
495
494
495
498
497
494
492
494
494
495
495
493
494
494
492
494
497
496
493
490
490
493
495
489
488
487
489
489
491
491
486
488
489
492
491
488
489
490
488
488
495
496
490
489
491
493
494
490
489
488
491
491
493
494
489
490
489
489
491
490
489
486
486
487
492
493
490
488
489
490
494
493
489
490
492
491
491
495
494
493
493
495
495
497
493
490
492
492
495
498
497
494
493
495
498
497
495
492
494
495
493
497
501
499
498
499
500
505
504
500
499
499
499
504
503
501
498
500
500
502
503
498
501
501
498
491
490
483
478
489
513
556
591
596
586
566
538
515
506
504
500
501
500
500
500
500
498
498
496
496
502
503
498
497
497
501
504
502
500
500
502
502
503
504
501
501
502
500
504
507
504
501
501
502
506
510
508
505
507
507
513
512
509
507
507
511
510
515
519
515
513
513
516
520
517
514
515
514
516
520
521
516
514
516
518
517
516
513
516
517
514
516
520
517
513
513
512
518
519
513
513
514
514
515
518
518
514
515
516
517
518
516
514
513
513
513
519
520
514
514
513
517
519
515
514
514
517
518
521
523
520
519
519
518
521
519
518
515
515
514
520
522
519
516
516
517
521
522
513
503
497
491
491
506
536
572
603
613
606
583
551
524
514
513
513
519
515
509
507
506
511
510
507
505
507
505
506
510
514
510
507
507
508
512
511
505
505
505
506
508
508
505
502
503
504
506
506
504
505
503
504
505
512
513
507
509
508
514
516
515
512
513
515
515
518
518
514
516
515
516
518
517
516
514
514
513
516
519
514
511
511
513
518
516
513
513
516
516
516
518
518
515
513
512
516
518
515
513
513
512
515
520
518
514
513
516
519
517
513
513
511
512
511
515
518
515
510
509
512
516
516
511
510
510
514
519
519
515
512
514
514
517
516
514
513
509
510
512
517
515
510
510
509
515
516
509
501
492
488
486
495
516
549
588
606
607
590
561
533
515
510
510
515
515
506
504
502
507
508
503
500
503
500
501
503
504
503
501
500
501
504
506
502
499
498
496
501
502
501
497
496
498
502
502
500
502
503
503
504
509
513
510
508
509
511
516
514
510
509
510
513
518
516
512
510
513
515
514
512
511
512
509
509
512
517
513
508
508
507
514
515
512
510
510
513
514
519
515
514
513
511
517
517
515
514
512
512
511
517
518
511
510
510
514
517
511
509
509
512
513
513
515
512
511
508
509
512
514
511
509
510
510
516
518
513
510
508
509
514
512
510
512
511
509
509
513
512
511
508
508
509
507
496
486
481
483
501
534
568
587
589
578
558
531
513
506
504
503
502
504
507
503
499
499
499
505
504
500
499
498
500
501
502
500
499
499
500
502
503
501
501
503
499
499
506
506
499
500
498
503
505
500
501
502
504
504
509
511
506
509
506
509
510
511
509
507
507
507
513
515
509
508
507
509
514
511
507
509
509
507
510
513
515
512
511
511
514
517
512
509
509
508
510
514
513
509
509
510
512
513
511
512
512
511
510
515
518
513
509
509
510
515
515
509
508
508
510
513
514
510
509
510
509
516
516
514
513
510
511
511
517
515
511
511
509
515
517
513
511
513
513
511
515
511
501
492
485
495
510
539
574
595
596
582
565
539
517
509
506
509
511
510
505
507
506
504
506
508
508
506
503
504
507
510
507
504
504
504
506
511
510
505
506
505
508
507
503
505
505
504
505
509
513
509
507
510
509
514
514
509
514
510
514
517
516
512
512
512
510
515
515
511
511
509
509
511
517
516
511
510
509
514
514
509
509
510
510
508
513
514
511
509
508
512
513
512
511
509
509
509
514
516
509
509
508
513
514
513
511
513
512
513
514
516
515
514
511
512
514
517
513
511
511
513
514
519
517
514
515
517
518
518
513
512
515
513
511
515
520
514
510
510
512
517
515
511
511
511
507
502
494
486
491
509
539
582
606
607
591
563
535
516
515
513
507
505
502
507
508
502
500
502
501
500
504
505
502
501
499
502
502
501
500
499
498
496
501
502
497
495
496
500
501
497
494
495
495
494
498
499
498
498
497
498
503
506
503
501
501
502
506
511
509
506
508
508
510
512
508
509
508
507
507
511
514
509
506
506
509
512
509
506
507
507
508
511
512
508
510
511
512
515
514
511
513
510
509
512
516
513
509
509
509
515
516
510
509
511
511
509
517
515
514
513
510
513
514
512
511
509
509
508
514
516
510
510
512
516
515
513
511
512
512
509
516
515
514
514
511
513
515
517
514
512
511
505
500
495
486
485
504
533
576
606
607
596
568
538
517
513
516
512
507
504
505
508
504
501
502
501
501
503
504
499
500
500
500
503
501
501
500
499
499
502
505
503
499
498
497
504
505
498
499
500
500
500
504
503
502
503
503
507
509
508
510
509
510
509
516
516
511
511
512
516
515
512
510
512
513
511
516
517
515
514
512
514
518
516
515
512
512
512
516
519
512
509
511
511
514
515
512
513
512
510
513
518
519
515
513
512
514
518
514
512
511
511
511
515
517
512
513
514
515
515
510
511
511
510
510
515
519
516
515
517
519
524
522
518
516
517
516
517
519
515
515
515
514
517
517
517
516
515
515
514
512
503
490
488
495
520
553
586
602
601
582
553
531
517
508
507
506
508
509
507
506
504
503
504
509
510
505
504
506
507
507
506
505
504
504
502
505
505
501
502
500
500
503
503
502
500
500
501
502
507
505
501
504
505
510
510
507
508
509
508
511
513
517
513
510
510
514
517
514
512
512
514
513
514
515
511
511
511
510
513
511
511
511
509
509
512
516
515
510
510
512
517
515
512
511
513
513
513
515
514
511
511
509
513
513
512
511
508
508
509
516
515
510
508
507
512
513
511
509
511
509
510
515
517
516
515
512
513
515
517
513
510
510
512
515
516
513
509
511
511
514
514
508
505
496
487
485
494
515
542
573
590
594
581
552
526
511
505
506
509
509
503
500
502
502
504
502
502
502
501
503
506
510
506
504
503
505
509
507
503
502
504
504
504
505
503
504
504
502
506
506
504
504
502
502
504
509
508
504
504
506
510
510
506
506
508
508
507
511
511
508
508
506
509
513
509
508
506
505
508
511
510
505
505
507
505
508
508
505
506
507
505
508
509
510
508
507
505
510
510
504
503
503
505
505
507
509
505
504
506
508
509
505
507
509
505
504
508
510
507
505
506
511
514
511
509
508
509
509
511
512
507
508
508
505
508
508
506
505
504
505
507
511
506
499
488
484
486
494
512
545
582
597
590
575
549
520
507
501
504
506
504
499
499
498
500
504
503
500
499
501
503
507
503
501
503
503
501
503
505
505
504
502
500
502
505
501
500
500
502
504
507
506
503
505
506
508
511
508
508
509
508
511
512
515
511
509
508
512
515
510
509
508
507
511
513
515
511
512
511
511
513
512
512
512
511
511
514
516
513
511
510
512
516
515
511
510
512
511
510
514
514
510
510
508
512
513
512
511
510
509
512
516
515
511
510
513
514
513
512
510
512
513
511
514
515
513
513
511
511
514
516
511
510
511
514
517
517
515
511
513
514
515
514
510
513
513
513
510
515
516
509
508
513
514
514
503
494
485
483
488
509
544
579
605
606
590
565
534
516
511
509
509
512
511
505
501
500
502
505
504
499
497
496
499
498
501
499
498
499
496
499
502
498
496
496
496
497
502
503
500
499
500
503
504
501
499
503
503
504
507
508
507
506
504
504
507
509
504
505
504
506
508
508
506
503
505
504
506
506
502
503
504
503
502
508
507
502
501
501
506
507
503
502
502
504
505
508
510
505
507
507
508
510
510
508
508
506
506
511
513
508
506
506
509
511
509
505
503
506
507
506
510
510
509
509
507
510
512
510
509
508
507
508
514
513
509
509
513
518
518
515
513
515
516
515
517
518
518
517
515
513
518
517
512
511
511
514
516
510
499
491
488
494
515
547
581
605
608
589
564
543
523
513
512
511
515
514
508
507
505
507
507
515
512
507
509
509
509
510
508
509
509
506
505
510
511
506
504
503
505
509
507
504
503
507
507
509
513
512
513
514
516
519
523
520
518
518
518
522
526
525
520
520
522
537
553
562
567
571
578
578
585
589
584
586
585
587
592
589
584
584
583
586
588
586
582
579
580
580
579
578
573
574
573
570
571
576
573
566
564
562
567
567
559
557
554
556
556
558
559
552
553
552
552
555
551
549
546
542
542
547
548
541
540
540
547
566
572
576
578
580
582
582
583
578
574
576
572
575
577
572
569
567
565
565
564
552
540
534
537
554
576
609
628
633
621
595
573
558
543
538
537
538
539
534
528
527
525
527
530
529
525
522
523
523
526
523
519
520
519
515
516
518
518
512
511
510
515
513
509
508
508
509
509
511
512
507
508
509
509
511
510
510
508
508
507
511
511
506
504
503
505
507
502
499
498
500
497
500
501
497
498
498
496
500
503
499
497
499
497
501
505
501
497
495
498
502
501
498
497
498
501
498
502
505
499
499
498
500
504
500
496
497
497
499
502
501
497
495
497
499
498
500
496
498
498
496
498
504
502
498
497
495
500
501
494
493
493
495
495
497
496
494
495
496
498
498
496
495
490
483
477
475
478
485
509
546
579
588
571
548
520
502
492
493
494
491
490
489
487
490
492
489
487
487
487
491
493
490
488
489
488
493
492
488
487
489
488
487
491
493
489
487
489
491
495
492
489
490
493
492
498
497
493
492
492
497
497
495
494
496
494
494
497
500
497
495
495
495
499
498
496
494
493
495
498
498
496
492
494
494
495
496
494
494
494
494
494
501
501
495
495
494
499
500
495
494
493
496
496
499
499
497
496
496
501
500
500
499
497
499
498
504
507
500
502
498
502
505
503
499
499
501
501
502
505
505
502
502
503
507
510
507
504
503
503
505
510
508
504
501
504
507
507
503
503
502
501
502
506
507
496
486
477
477
490
510
542
580
597
595
579
550
520
504
503
505
505
504
499
498
495
494
495
500
498
493
492
491
496
497
491
490
490
491
492
496
496
492
493
492
495
496
495
494
492
492
494
499
502
496
496
498
501
504
501
500
499
501
503
504
506
506
502
502
502
506
509
505
503
504
503
507
511
507
503
503
507
511
510
505
507
507
505
505
511
513
509
507
507
509
513
510
507
505
505
508
513
513
508
506
508
510
512
509
509
509
507
507
510
514
511
509
513
508
514
515
509
508
510
509
510
511
510
508
508
507
510
511
508
508
506
506
506
513
514
508
508
510
515
515
509
512
509
511
512
513
514
512
511
508
510
511
512
507
508
508
506
506
500
490
483
489
509
548
585
608
605
588
559
531
518
515
512
510
507
508
510
506
502
503
502
503
507
507
502
501
503
505
504
502
503
503
501
501
504
507
503
500
500
499
504
505
501
500
499
500
506
506
505
506
507
506
512
514
514
514
513
514
514
520
522
515
514
514
519
520
515
513
512
514
512
515
515
513
513
509
512
514
514
512
510
510
510
516
518
516
511
511
515
519
520
514
516
516
513
516
517
515
514
512
512
515
515
515
511
510
509
511
517
514
510
511
510
513
514
510
511
511
509
510
514
517
512
509
508
510
515
514
510
510
509
513
518
517
513
512
509
510
513
510
509
505
505
505
508
512
509
504
503
503
509
506
492
485
481
482
494
523
557
583
591
580
563
537
515
505
499
500
499
505
506
499
498
496
499
503
497
496
497
499
496
500
501
501
501
500
500
502
503
501
498
501
497
502
506
502
499
500
500
503
504
499
501
502
502
503
506
509
505
505
505
509
512
510
507
507
507
510
515
514
512
512
512
512
514
511
512
510
509
509
513
517
514
511
510
509
515
516
510
510
511
511
512
515
513
512
512
510
514
515
513
513
512
512
515
518
519
511
511
512
516
518
511
509
510
510
509
514
514
509
511
508
510
510
511
510
508
507
506
511
516
511
510
512
513
514
515
511
512
512
510
513
516
516
514
512
511
515
518
514
511
507
500
493
494
494
504
532
565
592
598
583
563
536
517
508
511
516
508
507
505
506
511
509
505
505
507
507
508
511
507
508
508
506
509
511
508
508
506
506
510
512
511
506
505
504
509
509
504
504
507
508
506
512
511
509
510
509
513
515
513
512
510
511
510
517
519
512
510
511
513
513
510
507
509
509
507
511
512
511
509
507
509
512
515
511
508
508
509
513
516
514
510
513
512
513
515
511
513
514
512
513
516
518
514
512
511
513
515
513
513
508
510
511
513
513
510
509
509
509
511
508
508
506
506
505
508
512
510
506
506
508
514
514
510
509
511
511
510
517
511
509
509
506
510
510
509
510
508
507
507
515
513
500
491
486
487
496
517
553
589
604
595
579
552
524
509
505
507
508
507
504
500
499
501
504
504
501
499
501
502
504
504
500
502
503
501
502
504
507
503
500
499
502
504
502
499
499
501
501
504
504
499
500
501
503
505
503
504
504
504
505
510
515
512
509
509
513
516
513
510
509
509
511
513
515
512
509
511
509
513
513
513
512
509
508
507
514
513
508
507
510
514
514
511
511
513
514
512
517
518
516
515
512
518
516
516
515
512
510
513
518
518
513
511
514
515
517
517
513
514
515
513
515
515
515
512
509
508
511
514
512
510
511
514
515
517
517
511
514
514
515
515
511
513
513
511
511
514
518
514
511
510
513
509
497
489
484
489
506
542
586
604
606
590
562
535
516
509
510
507
504
505
508
505
501
501
503
506
504
500
500
502
502
500
506
505
503
504
503
504
504
504
503
500
500
501
506
506
501
500
502
504
504
502
501
503
505
504
508
510
508
507
506
508
514
516
512
510
509
511
514
517
515
511
513
513
514
514
510
513
513
511
511
515
516
514
511
511
515
517
514
512
510
512
513
516
516
511
513
513
513
517
515
515
515
517
513
518
520
516
513
515
515
520
518
513
511
512
514
513
517
517
515
515
512
515
515
514
513
511
510
513
519
519
515
513
515
518
518
514
515
514
514
512
516
520
513
512
508
509
514
511
508
502
493
488
487
494
506
533
572
596
601
585
556
531
514
505
505
508
509
505
501
501
506
506
501
501
500
502
501
506
505
499
502
502
503
505
501
503
503
500
498
503
505
499
497
496
500
502
499
497
496
496
499
501
503
501
502
504
502
506
506
507
508
506
506
509
513
515
508
507
510
514
515
508
506
508
508
506
514
511
510
510
507
513
514
511
507
507
510
508
513
514
509
509
510
513
513
512
509
510
510
507
510
512
510
506
506
505
511
511
508
506
505
507
507
509
509
504
506
506
508
510
509
510
512
511
510
516
517
511
510
509
514
515
510
507
506
508
507
510
511
507
509
509
505
497
490
486
491
508
536
575
599
595
577
552
529
516
510
506
505
506
505
503
507
507
505
506
504
507
508
506
503
503
503
505
509
508
503
501
500
504
505
503
500
503
504
502
505
507
506
505
504
505
511
510
508
507
507
508
511
513
510
507
510
511
514
515
509
511
511
510
513
519
520
512
512
511
515
517
513
512
511
513
513
516
516
511
513
512
513
515
515
513
512
512
514
518
520
514
513
511
512
518
518
514
512
514
516
514
517
515
514
515
511
515
518
514
512
512
511
513
519
517
513
512
514
518
518
516
516
517
517
514
518
521
517
513
514
516
520
518
516
514
513
513
517
517
513
505
498
492
490
499
511
548
588
607
608
595
566
532
514
509
515
515
507
504
503
504
505
508
508
503
504
505
506
506
506
505
503
503
503
509
510
504
502
501
505
506
504
501
502
503
504
505
507
503
503
504
502
505
509
505
505
505
506
510
514
511
508
508
510
515
516
511
510
512
512
509
516
516
513
510
509
511
514
512
509
509
510
510
515
515
511
511
510
513
514
513
511
512
512
509
512
515
516
511
511
510
515
517
511
510
509
512
514
516
516
511
513
514
514
514
514
513
511
510
513
516
517
510
509
508
513
516
513
513
513
515
515
516
517
513
513
513
510
513
514
511
509
509
509
514
516
511
508
503
497
493
487
485
498
530
567
598
609
599
570
539
518
510
513
511
505
504
500
502
506
505
500
499
501
504
503
501
499
500
500
500
502
505
503
498
499
499
504
505
499
498
497
498
500
501
500
495
497
498
503
501
499
500
499
500
501
508
512
505
504
503
508
510
506
506
505
507
508
510
510
506
506
507
507
510
511
509
508
506
506
510
512
509
506
505
507
512
510
507
507
509
511
510
513
513
511
509
508
511
514
511
507
506
504
506
510
511
505
504
507
510
509
507
506
505
504
503
506
506
505
502
502
503
508
506
500
500
500
502
504
504
502
501
505
505
507
507
505
504
502
502
502
509
509
502
502
502
507
506
504
503
503
504
498
490
484
480
486
508
541
579
597
592
571
547
518
510
507
502
502
496
497
500
498
498
494
496
497
495
498
501
496
494
493
497
499
496
493
492
492
494
499
497
492
491
493
496
496
495
495
495
494
495
498
502
499
497
497
498
503
502
499
499
500
503
508
508
506
505
507
508
510
510
508
509
507
507
507
513
512
507
510
507
513
514
509
509
508
511
512
515
515
512
513
511
513
514
513
509
510
510
509
516
518
514
510
509
512
515
512
508
508
510
510
511
517
513
511
509
509
516
515
510
507
507
507
508
515
513
509
509
513
515
515
511
512
513
511
513
518
521
517
514
516
516
520
518
515
514
514
511
508
499
490
489
501
528
565
593
599
588
567
540
522
517
513
512
509
508
513
513
506
505
503
507
507
509
509
506
505
504
508
508
506
503
502
501
500
507
510
503
502
501
507
510
505
503
504
505
504
507
508
505
507
506
508
511
514
511
509
509
508
512
515
512
509
508
510
515
517
510
511
511
510
510
514
515
513
510
509
512
514
512
509
508
507
509
513
513
509
510
510
513
514
511
511
513
513
514
518
523
520
517
516
520
523
523
518
517
516
516
520
521
519
518
518
516
520
520
520
519
517
521
518
525
528
523
524
521
527
529
524
524
523
524
522
526
528
525
524
522
523
524
524
522
522
520
512
511
517
524
542
571
615
650
653
635
612
585
560
551
555
557
552
546
543
543
545
542
538
536
534
536
540
537
531
530
529
528
528
522
520
517
513
510
511
512
506
501
497
495
497
493
484
480
476
475
476
475
472
470
468
465
468
467
464
463
462
461
460
466
467
460
458
457
463
464
459
458
458
457
456
459
457
453
451
450
450
450
449
446
446
444
444
448
450
445
444
444
444
449
451
445
446
446
444
446
449
450
448
446
445
449
451
448
446
446
447
446
451
451
447
447
448
449
451
449
449
450
449
449
451
455
453
451
452
454
459
459
455
454
454
456
460
459
456
454
458
456
460
460
459
459
458
458
459
465
464
453
445
437
440
450
468
504
546
566
561
546
519
490
474
470
474
475
472
470
468
467
466
472
473
468
467
468
472
475
472
470
472
473
472
476
478
478
475
475
475
478
481
477
476
475
476
481
486
485
482
484
487
488
491
488
491
493
494
493
498
501
500
498
497
500
504
502
499
498
500
499
504
505
501
499
502
504
508
506
506
506
505
504
506
510
509
505
504
504
510
510
507
507
509
510
510
519
515
512
513
512
516
518
518
518
516
517
517
525
526
520
521
522
526
526
524
523
525
525
523
528
529
527
527
525
527
530
532
530
529
530
530
535
539
535
533
532
535
539
539
533
532
535
532
533
538
540
535
535
535
537
535
524
516
512
517
536
570
605
621
621
607
583
558
542
536
535
533
534
536
538
531
530
530
529
536
536
531
529
532
533
534
536
534
534
534
533
538
538
536
536
533
533
532
539
540
534
533
533
537
537
534
532
535
534
533
538
538
536
536
535
542
540
541
541
539
538
538
545
547
541
538
539
540
541
540
535
537
537
536
537
539
539
536
537
533
536
540
537
533
532
535
535
538
538
532
531
534
536
536
531
532
533
531
529
534
538
532
530
530
533
537
536
532
530
532
531
533
533
528
529
529
528
531
532
531
533
531
530
533
536
534
529
528
529
532
532
529
527
528
528
527
530
529
527
527
521
517
509
503
504
517
544
576
609
615
597
572
545
530
523
520
516
518
519
514
517
518
517
514
511
510
514
516
513
512
511
512
515
518
519
512
514
515
517
516
511
510
512
510
511
515
517
513
512
512
517
521
520
517
517
520
520
522
525
520
522
522
522
525
522
520
522
521
520
520
525
523
518
517
519
523
522
517
516
517
517
518
523
521
518
520
519
522
520
519
520
517
516
518
524
524
519
517
519
523
522
518
517
518
519
518
521
522
521
521
519
519
521
523
520
517
517
519
523
524
521
518
519
517
522
522
518
520
522
521
522
525
526
522
519
521
524
525
520
519
520
519
520
525
525
519
520
518
521
522
514
508
497
492
492
507
536
573
602
611
603
582
551
526
514
516
517
517
516
510
509
508
506
508
508
505
505
503
504
506
508
508
503
501
502
504
506
502
500
501
499
496
499
500
497
496
494
497
498
498
498
496
498
499
504
506
502
500
502
503
504
504
500
502
501
502
505
507
508
507
505
503
508
509
504
504
503
505
505
507
508
503
505
505
506
508
505
505
506
507
505
508
511
508
505
507
508
511
507
505
505
506
506
508
510
506
506
506
505
508
507
507
508
505
503
506
510
508
505
506
507
510
508
505
504
505
506
504
507
506
501
504
502
505
506
508
507
505
505
507
511
513
506
503
504
506
508
507
504
507
508
505
508
511
511
508
503
496
492
487
481
491
512
550
590
608
600
573
546
522
513
509
505
507
504
500
499
504
505
499
498
497
500
503
499
497
496
497
499
500
501
497
498
498
496
499
497
494
494
493
494
497
500
497
495
494
496
501
500
497
498
499
500
499
504
506
501
504
503
507
509
506
507
506
504
505
510
509
508
503
506
509
508
505
505
506
507
505
508
507
505
506
504
503
508
509
503
502
502
504
508
510
512
506
507
508
511
515
507
509
510
508
506
512
511
507
505
504
510
511
508
507
508
510
511
516
516
511
511
512
512
513
509
509
510
507
506
509
514
508
506
507
510
515
514
510
508
510
509
512
514
510
509
510
507
510
514
510
508
508
506
504
500
492
483
481
496
523
558
582
585
578
558
529
515
507
503
503
500
501
503
501
497
498
496
498
502
504
502
499
500
503
505
504
500
502
502
500
501
505
504
499
500
500
504
505
502
502
502
504
505
507
511
504
506
507
508
510
509
509
510
509
508
511
512
508
507
506
508
513
510
506
505
507
506
506
510
508
508
510
511
514
515
513
513
512
511
514
520
519
513
512
511
518
518
515
514
516
516
515
519
520
517
516
515
517
520
519
515
515
513
516
519
519
516
516
516
516
518
518
513
514
516
514
513
518
520
515
514
514
520
519
513
512
512
514
513
518
518
512
514
515
517
517
514
514
513
510
506
505
498
487
487
500
529
568
591
593
581
560
532
518
511
507
509
509
506
509
511
508
506
506
505
507
511
510
506
506
506
510
509
505
504
508
510
507
511
512
509
507
507
509
511
510
507
506
505
507
513
514
510
508
510
512
514
515
511
514
514
512
515
520
518
514
515
514
519
521
516
514
513
512
516
518
518
513
516
517
518
519
517
515
514
514
513
519
520
516
515
515
520
524
519
517
516
518
518
519
521
518
518
519
517
520
522
518
517
516
515
519
524
523
518
517
519
521
520
518
514
516
517
516
520
521
518
517
516
517
522
520
517
515
514
516
519
520
517
514
515
518
522
520
515
519
521
518
520
524
521
512
507
496
497
499
507
535
574
604
612
602
577
542
523
516
517
516
511
509
506
505
502
508
510
504
504
502
504
508
505
503
501
501
502
502
502
498
499
497
496
498
501
497
495
496
496
498
502
500
496
495
498
503
503
498
496
500
501
498
503
507
501
502
503
505
508
506
504
504
502
504
509
509
504
502
504
506
506
504
502
503
503
502
504
507
506
503
503
500
504
505
501
500
500
503
504
508
512
503
505
506
507
507
504
503
502
502
500
505
506
502
501
499
503
506
502
500
499
501
502
509
507
503
502
502
502
503
505
502
502
503
502
506
510
506
502
501
503
506
505
501
499
500
500
501
504
506
502
502
501
502
504
497
486
478
474
483
507
540
573
596
593
579
553
523
505
500
500
498
498
500
497
492
491
491
496
496
491
490
489
491
493
496
496
490
492
494
494
495
491
491
489
489
488
492
494
489
488
486
489
493
490
488
486
490
492
495
496
496
496
495
495
499
502
498
498
498
496
498
504
503
499
497
499
504
503
498
496
500
500
496
500
502
499
497
498
501
504
500
498
498
497
499
505
504
500
498
500
504
503
501
500
499
497
499
503
506
503
499
500
499
505
507
501
499
499
502
504
505
504
500
502
500
504
505
504
503
506
505
505
513
516
510
509
507
512
514
509
511
505
506
507
510
513
509
507
507
508
509
510
505
497
489
483
488
502
521
553
581
593
590
569
538
517
509
508
507
509
509
501
500
498
501
505
503
504
500
500
502
508
507
503
500
503
508
509
507
503
505
505
502
507
510
508
504
503
504
511
510
507
506
505
508
511
513
512
510
509
513
514
514
514
511
512
513
513
520
519
514
515
513
518
521
517
515
513
515
517
520
520
518
517
515
517
519
521
518
517
517
516
520
524
521
518
516
518
524
522
516
516
519
519
518
522
524
520
518
518
521
524
522
520
519
517
517
526
524
517
517
520
521
523
520
521
522
522
524
526
528
525
523
521
515
516
509
494
482
470
460
450
436
420
405
392
381
372
359
345
338
336
349
371
413
443
443
430
408
386
368
357
357
358
359
358
361
363
361
361
362
366
365
366
366
366
367
367
372
375
373
372
372
373
378
379
376
375
379
380
384
386
388
388
390
391
394
399
401
401
402
403
404
411
414
408
404
405
410
411
407
407
409
411
411
416
420
420
420
422
424
429
430
429
431
432
435
440
444
443
442
445
447
452
453
454
457
458
460
460
468
469
468
469
468
473
477
475
474
475
480
483
485
486
485
487
486
488
491
493
492
492
494
494
500
504
502
501
501
506
514
515
511
513
514
513
515
519
521
518
519
521
525
526
525
527
527
527
530
538
540
532
527
522
520
515
515
532
563
601
629
635
622
591
565
545
538
545
546
541
538
535
537
541
541
539
538
537
536
541
542
537
538
540
540
538
541
546
540
539
539
545
546
541
540
541
540
543
546
546
544
545
545
548
548
550
552
551
552
551
559
563
558
557
556
559
564
562
556
554
552
550
552
553
551
548
546
544
545
548
545
542
543
542
543
549
548
544
543
543
548
548
543
543
543
544
542
546
550
546
542
542
544
548
548
546
547
544
545
551
551
545
545
546
546
548
546
545
545
543
543
543
548
547
542
542
539
545
547
544
540
539
541
541
544
544
543
544
541
543
544
542
541
540
539
539
542
546
541
537
534
538
540
538
532
534
534
527
522
517
512
513
527
557
597
624
625
610
584
555
540
539
533
526
526
525
525
524
520
521
520
520
521
523
523
521
521
520
520
525
525
521
519
518
520
523
522
518
518
518
515
519
517
515
516
516
515
516
520
522
519
519
519
526
527
522
522
524
524
524
530
529
525
525
525
529
528
526
525
524
523
523
530
532
528
525
525
528
531
529
528
526
526
527
530
529
529
528
526
525
527
530
528
524
524
524
528
533
530
527
526
526
533
532
527
527
528
526
525
530
534
529
527
528
531
533
531
530
533
526
528
535
535
531
529
531
533
536
534
535
533
532
532
535
538
535
533
533
531
536
540
534
535
534
536
537
541
538
534
528
516
514
513
519
536
567
599
612
615
601
571
545
532
533
537
530
526
528
527
524
529
531
526
525
524
526
526
526
525
524
522
520
525
529
524
522
523
522
524
527
522
522
522
522
525
525
526
523
522
522
523
528
526
523
522
522
522
530
528
524
526
524
527
529
524
524
526
526
524
526
530
526
522
520
520
526
524
522
519
521
521
522
526
521
519
519
518
521
518
517
518
515
513
513
520
520
515
514
514
517
520
516
513
513
513
513
517
515
513
514
511
512
513
511
510
508
509
508
512
514
510
507
505
506
509
508
503
504
506
505
509
510
510
508
505
507
510
512
510
508
507
506
506
511
510
502
502
503
505
505
497
490
482
476
479
499
531
566
587
589
573
553
524
504
494
495
496
496
498
491
492
491
490
496
495
491
491
491
491
493
494
495
490
488
489
494
494
489
487
489
486
486
492
492
488
489
488
491
490
490
492
491
490
489
498
501
496
496
499
500
503
502
502
501
501
501
505
504
502
502
502
498
500
504
502
501
499
501
502
505
505
502
502
502
504
505
500
501
503
503
501
504
507
504
500
499
500
505
503
500
501
501
500
502
506
500
499
499
500
505
501
500
500
498
498
502
506
503
499
499
501
504
504
502
499
499
498
500
503
502
500
499
500
503
506
506
506
504
505
503
508
511
509
505
506
507
509
506
503
504
506
504
507
508
505
495
485
480
480
490
512
549
582
596
592
574
542
511
501
501
502
501
493
490
490
488
488
492
492
488
487
486
487
490
490
486
484
487
488
490
490
485
487
486
487
489
486
483
487
487
486
487
490
489
486
484
485
490
494
490
490
492
492
495
501
497
497
499
499
502
501
500
503
502
501
500
506
506
500
499
502
505
503
501
499
499
500
500
506
504
502
504
503
504
505
507
508
509
506
509
512
511
508
506
505
508
511
512
506
507
506
507
508
508
509
506
505
506
511
512
507
507
507
507
506
510
512
505
504
508
510
510
507
509
510
507
507
513
517
513
512
512
515
516
514
514
514
513
515
518
518
518
516
517
515
518
517
515
513
505
496
492
494
504
526
558
591
609
602
577
550
528
518
512
515
514
507
507
505
509
508
506
504
506
504
504
511
511
509
502
505
509
510
507
505
507
507
506
509
507
505
504
504
502
506
508
505
503
500
504
508
512
512
508
509
509
512
514
510
511
513
513
512
515
517
517
514
513
518
520
515
513
512
515
514
517
519
514
513
514
517
518
514
514
516
514
512
517
520
515
512
512
514
518
518
514
512
512
513
513
517
515
513
513
510
511
512
513
512
508
508
510
514
516
509
508
507
510
512
512
506
507
511
509
511
512
511
511
508
507
512
509
505
506
505
504
507
510
507
502
502
502
501
490
480
480
489
508
538
576
590
581
561
535
516
506
501
501
497
498
499
500
499
494
497
497
496
497
495
495
496
496
496
499
500
498
497
495
497
502
502
498
496
499
500
499
501
501
500
500
499
503
503
502
503
503
501
502
508
508
503
501
504
508
507
505
504
505
506
504
510
509
506
507
506
509
509
509
507
506
505
506
509
509
505
504
503
505
508
510
504
505
507
507
508
510
512
510
508
506
513
515
509
508
507
508
507
512
515
509
509
511
514
513
508
509
511
508
506
512
517
512
513
512
516
517
512
511
509
510
511
518
516
510
511
514
510
513
513
511
508
506
502
498
493
485
482
492
517
558
590
595
584
565
540
516
507
504
504
503
499
501
503
499
496
497
496
495
501
503
498
495
497
502
502
499
495
498
498
496
499
503
499
496
498
497
500
500
496
495
492
495
498
501
500
495
499
500
502
504
501
502
504
503
503
507
508
505
505
502
506
511
510
506
504
507
507
510
511
508
508
509
509
512
513
507
508
509
506
509
513
510
505
504
507
513
514
509
508
509
510
510
516
515
513
514
513
516
516
515
514
513
511
514
516
514
510
509
512
512
514
514
510
513
516
516
517
520
518
516
516
512
519
520
513
513
513
514
514
517
516
509
512
513
510
500
488
485
491
507
537
584
610
604
588
562
539
521
513
513
510
509
509
512
512
505
507
509
507
512
509
507
505
505
503
507
509
506
505
503
502
508
507
501
498
500
501
500
502
503
503
501
501
505
508
504
503
506
506
506
510
510
503
501
503
508
507
503
501
504
504
502
506
508
505
501
501
500
504
505
503
503
502
504
508
512
505
503
505
505
507
509
504
504
504
505
505
508
510
506
504
504
508
512
508
506
506
506
509
512
513
508
511
510
512
514
511
510
510
509
507
512
519
514
510
511
516
522
522
520
519
520
522
523
525
523
522
523
524
526
527
526
525
524
525
526
532
526
513
505
502
510
527
551
583
610
617
603
583
558
537
528
525
525
531
529
523
523
524
523
526
527
523
518
520
523
526
524
521
523
522
520
520
526
527
521
522
522
526
527
523
522
524
521
524
528
527
521
522
526
527
528
529
528
526
526
526
532
534
530
529
527
528
533
531
527
526
530
531
531
534
533
530
528
529
532
534
529
528
529
526
524
532
532
525
524
527
532
530
525
524
528
528
529
532
534
529
527
528
527
529
528
527
524
524
525
531
529
525
522
524
524
525
525
522
522
522
524
525
527
526
524
523
522
528
531
525
523
523
525
524
528
532
522
522
523
525
524
521
520
520
519
514
515
507
496
492
499
524
562
592
606
601
583
558
537
521
514
513
513
511
510
511
510
507
504
501
506
509
505
503
501
501
506
507
503
500
500
504
503
505
506
502
501
500
501
504
502
500
502
500
500
505
506
504
499
501
507
508
503
505
508
506
505
508
513
511
508
507
506
510
509
506
506
502
502
505
509
504
501
504
504
507
506
505
504
503
503
503
507
509
505
506
503
507
511
507
506
503
507
509
509
509
507
507
504
508
509
506
504
504
504
500
505
507
505
501
499
503
506
505
500
501
503
503
504
507
505
502
502
504
506
508
507
507
507
504
507
513
511
504
503
506
509
509
506
504
504
503
504
505
507
505
506
503
499
495
489
481
485
503
539
582
605
601
582
554
527
514
507
504
505
503
500
498
504
506
499
497
495
502
503
499
499
499
501
503
506
505
500
502
503
505
505
503
504
501
501
503
507
508
503
503
501
505
509
507
504
503
505
505
507
508
509
510
509
509
514
517
512
510
511
511
513
519
518
512
508
509
519
517
512
514
516
515
513
517
521
517
516
516
517
518
518
517
518
515
518
526
525
521
521
523
524
527
528
525
524
522
522
526
527
526
523
522
519
524
527
521
518
516
518
522
524
525
523
521
522
527
527
522
521
522
521
518
525
528
525
520
518
523
526
522
518
519
518
516
520
521
517
515
515
516
514
514
511
503
492
484
487
495
509
536
571
590
593
575
546
520
505
503
501
502
503
500
502
496
497
501
500
496
496
495
496
501
501
500
497
498
500
503
498
497
499
499
497
499
505
504
500
499
500
507
506
503
503
502
503
508
514
509
507
509
510
512
512
512
514
511
511
514
517
518
514
514
513
517
517
516
511
512
514
515
519
517
516
516
513
514
516
518
514
513
514
511
513
519
516
512
511
514
519
518
511
513
516
512
511
515
517
513
512
513
514
515
515
515
516
511
514
521
518
512
512
515
516
518
515
516
516
515
515
517
518
516
514
513
510
516
518
516
509
511
513
513
514
512
512
508
499
495
489
485
497
520
550
575
589
587
562
534
512
510
506
500
498
499
498
499
504
505
500
500
499
502
500
500
501
499
498
497
503
505
500
500
502
500
502
502
497
498
497
496
498
499
499
502
498
495
498
503
501
498
498
498
500
507
508
504
505
506
509
511
506
506
507
507
504
507
512
509
505
504
505
507
507
504
503
503
501
507
510
503
502
504
503
504
503
503
503
502
501
503
507
507
504
504
501
506
509
503
499
501
500
499
503
502
500
499
496
499
500
500
500
500
501
498
502
507
501
499
499
502
508
503
499
500
501
499
502
504
503
501
499
501
495
487
479
475
481
494
529
572
590
585
572
546
522
505
495
495
495
493
493
494
494
492
494
491
490
494
495
491
489
492
493
495
495
491
491
490
491
494
492
490
489
492
490
490
495
497
492
491
490
496
497
494
493
494
494
493
499
501
495
497
498
501
500
500
503
500
498
498
508
507
501
500
501
502
505
503
500
499
501
501
505
505
503
505
502
502
506
508
504
502
502
502
506
507
505
502
502
502
507
508
501
501
503
501
500
504
507
504
502
503
506
506
504
503
503
503
504
510
513
505
504
507
508
507
503
504
503
503
503
505
508
508
504
502
500
504
507
504
497
489
483
480
484
499
526
565
591
599
586
559
530
506
497
495
501
501
492
487
484
487
486
480
476
477
475
471
475
473
467
464
460
460
455
451
451
448
441
435
433
430
423
418
418
417
419
421
418
418
419
421
423
424
426
429
431
430
433
438
439
436
436
440
440
445
448
445
446
446
452
456
452
452
456
458
457
461
467
469
466
465
469
472
473
472
473
475
476
481
486
483
482
485
488
493
489
490
493
492
490
491
500
501
497
497
496
502
504
504
501
501
502
503
506
506
505
509
509
511
514
515
514
513
515
515
517
518
516
515
513
516
520
520
515
515
519
517
519
521
517
506
497
494
502
522
555
591
613
613
598
578
550
524
521
523
524
523
518
516
515
512
513
517
515
514
513
512
514
514
515
514
511
513
516
521
519
514
514
513
515
517
517
514
514
514
514
513
519
521
516
514
515
522
522
518
517
520
521
520
527
528
525
526
526
529
527
527
528
527
528
527
533
534
528
530
530
531
532
530
530
527
528
530
532
530
530
529
530
527
531
535
534
532
532
533
534
536
537
533
533
533
536
538
532
532
534
534
529
532
534
534
529
527
532
535
530
530
531
531
529
534
535
528
528
531
532
532
530
530
533
528
525
530
534
530
526
522
515
511
506
504
514
539
576
604
614
602
579
553
530
524
524
522
520
518
517
517
519
520
517
514
515
518
520
516
516
515
519
515
516
516
516
514
511
511
514
512
508
510
509
508
509
513
511
505
508
510
511
511
507
506
508
507
507
511
513
512
512
510
512
515
514
513
509
511
513
515
514
511
512
512
511
513
510
507
507
508
507
510
513
513
510
506
507
513
512
508
507
510
509
508
514
513
510
512
511
512
509
508
510
506
502
503
509
508
503
502
505
508
509
508
506
505
505
505
507
506
503
505
504
502
505
506
503
501
500
503
506
505
502
487
478
473
480
495
513
548
575
578
565
548
527
507
496
493
496
500
494
494
493
493
491
498
499
491
492
495
499
498
494
496
498
495
495
503
504
498
497
499
498
502
503
501
497
497
501
504
503
499
502
505
503
507
509
507
507
507
508
510
514
514
510
507
509
515
516
509
506
510
514
512
514
514
511
511
511
514
515
513
512
513
511
510
517
520
514
511
515
518
518
517
515
515
515
514
520
519
517
518
517
518
518
520
517
516
513
516
519
521
519
514
518
518
522
523
517
518
519
519
517
520
519
519
517
514
519
523
522
517
516
518
517
520
522
509
500
495
493
504
521
552
588
603
595
579
561
531
514
509
511
516
514
509
507
506
508
509
513
510
508
511
509
510
513
512
509
509
509
510
515
514
511
509
509
513
515
511
506
507
511
509
509
512
511
510
512
511
519
518
515
518
517
518
522
526
524
519
523
525
527
525
522
522
524
521
522
530
529
522
523
522
524
526
525
524
520
522
526
529
528
523
526
528
527
528
529
526
525
527
527
530
530
530
530
527
529
535
536
529
527
530
531
530
532
528
528
529
528
530
529
522
525
526
523
523
531
530
521
518
521
526
527
521
519
519
519
518
523
524
517
516
517
514
506
499
490
485
490
513
551
589
604
599
582
558
531
513
503
504
507
505
500
502
500
498
501
504
513
515
508
509
505
506
503
507
508
500
500
502
503
501
497
495
497
495
491
497
499
491
490
489
493
495
496
496
496
498
502
509
510
507
510
513
510
513
515
514
510
510
510
514
514
510
509
506
505
512
515
511
508
513
517
518
521
525
522
520
518
520
523
520
519
520
518
516
521
522
515
510
513
518
517
513
512
515
514
510
511
512
509
506
507
504
505
506
504
503
499
500
503
503
498
494
498
497
500
499
497
496
499
500
499
502
503
500
502
495
500
503
500
497
496
499
500
502
502
498
495
495
497
493
482
476
478
488
506
544
583
601
597
578
555
531
512
502
501
500
498
496
497
494
490
489
489
488
489
487
486
484
483
486
492
490
485
485
486
489
490
488
483
483
486
490
487
488
487
486
486
485
490
489
485
484
485
488
492
494
492
488
487
493
496
494
491
493
492
490
490
497
498
492
491
491
495
496
493
494
491
491
494
499
500
494
496
496
496
498
497
497
494
493
495
501
502
497
498
496
497
503
502
496
497
496
500
500
499
499
497
495
495
499
502
498
497
497
495
496
503
502
496
493
496
503
501
497
498
499
497
498
503
507
503
501
502
504
505
504
504
502
500
501
509
507
501
499
502
505
505
503
502
497
490
483
479
480
490
512
544
570
585
580
555
528
507
502
500
502
501
497
493
494
499
500
496
496
498
497
493
500
505
499
496
495
501
502
498
496
496
496
498
501
501
497
496
497
499
500
501
500
499
496
500
504
507
502
501
500
501
507
507
504
502
500
504
506
507
508
508
509
503
505
509
505
506
503
502
502
508
509
505
502
503
510
510
504
505
507
507
506
508
513
509
507
507
509
512
511
509
509
504
507
513
514
507
506
507
508
510
509
508
507
505
505
505
509
508
505
504
501
506
508
504
500
499
503
505
507
508
506
506
504
508
510
508
506
509
507
504
509
511
510
505
501
506
511
507
502
503
499
489
485
484
487
504
535
571
592
592
571
549
522
503
502
509
511
501
501
502
504
505
502
503
502
502
502
504
504
502
502
499
503
505
506
501
499
498
501
505
504
501
501
499
502
507
505
501
502
506
505
504
509
510
506
505
505
513
514
508
507
507
503
505
512
511
506
506
506
508
507
507
509
509
507
507
514
515
509
508
508
511
514
511
507
504
508
510
513
511
509
507
507
507
510
514
512
508
508
507
509
514
515
510
509
509
515
515
509
510
513
512
510
514
517
512
509
509
512
513
510
510
510
507
508
517
520
510
510
512
513
514
514
514
515
512
513
516
515
513
510
510
508
514
517
511
507
509
511
516
516
514
512
511
509
512
506
495
487
487
494
513
553
593
605
598
576
554
532
509
504
508
507
502
505
504
499
498
498
500
499
498
499
500
497
496
502
507
501
499
501
501
504
505
502
501
500
500
503
502
502
500
500
497
500
505
504
501
500
504
505
512
513
509
510
509
513
516
510
510
513
514
511
513
518
517
514
512
513
518
516
514
514
514
513
516
521
516
514
516
517
519
516
514
516
513
510
510
518
516
511
511
511
515
518
515
513
512
513
514
518
516
514
517
514
515
516
517
516
515
515
513
515
521
518
515
514
513
518
516
512
514
516
516
516
517
516
514
513
514
517
518
517
518
517
515
519
525
524
517
519
521
523
525
519
521
519
518
519
521
523
520
520
518
513
509
504
494
491
506
536
575
606
610
602
578
553
532
520
514
515
515
513
512
517
518
514
510
508
516
515
510
509
511
511
510
514
513
510
510
511
515
512
509
511
509
506
505
514
515
507
505
509
511
511
511
510
510
513
515
521
520
518
519
520
518
521
524
521
518
518
519
522
523
521
518
518
519
523
525
518
517
519
519
516
518
521
519
515
515
518
521
518
515
515
514
514
518
522
516
514
516
519
519
516
516
517
515
514
517
522
519
517
517
517
520
521
518
513
514
514
514
516
512
512
513
510
514
515
514
513
512
513
509
515
519
518
515
515
520
523
518
514
515
517
514
517
517
515
513
513
514
514
511
512
511
509
509
513
509
496
485
485
494
517
546
575
592
589
574
556
530
515
508
508
505
505
506
505
501
497
500
500
505
504
499
501
501
507
507
504
502
504
508
503
503
505
504
500
497
498
503
501
497
499
498
498
500
504
500
496
497
499
504
502
502
504
504
499
500
509
511
505
504
506
508
508
506
504
503
505
506
511
508
506
506
506
504
506
509
509
505
505
506
508
509
507
506
506
506
511
514
506
506
509
509
508
511
515
514
510
509
514
517
512
511
509
508
507
514
515
506
507
508
511
509
503
505
506
505
506
509
510
509
508
509
510
513
514
512
508
510
513
516
516
511
512
513
511
515
515
509
510
510
511
510
513
510
498
487
484
498
522
553
582
602
599
578
556
534
513
508
508
510
507
502
505
504
502
501
507
509
503
499
502
505
504
503
501
503
503
505
506
507
507
505
504
503
505
507
505
502
502
503
506
509
509
507
507
507
510
513
508
507
511
513
511
512
514
516
512
509
513
518
516
513
513
514
513
517
519
514
512
513
516
516
512
511
513
508
505
507
512
509
505
506
508
512
513
512
509
509
511
512
516
514
513
516
513
512
512
513
513
510
509
511
513
514
511
510
509
511
516
515
507
510
513
510
510
513
516
515
513
513
519
516
512
512
510
509
510
518
518
509
510
514
515
514
510
512
512
509
507
500
495
487
489
506
534
577
603
606
589
566
541
523
514
509
508
508
503
505
504
498
500
500
499
498
503
507
502
499
499
506
511
502
500
503
504
501
506
507
503
504
502
505
504
504
506
505
501
502
509
510
506
505
508
512
514
515
512
512
513
513
517
517
517
520
520
518
521
523
521
518
520
520
522
524
524
522
520
520
523
524
517
514
519
519
515
519
523
522
518
517
522
526
523
524
523
524
523
526
528
521
520
522
523
524
520
520
523
520
518
522
526
523
520
520
521
523
523
521
518
517
520
521
524
523
523
524
521
522
525
524
523
522
521
521
523
524
522
519
518
521
524
519
514
514
509
497
493
494
508
533
566
594
607
594
567
541
519
508
511
515
511
503
504
508
508
507
502
506
506
505
504
509
509
505
505
503
501
506
505
503
499
499
501
504
501
497
500
501
500
504
502
500
501
500
499
502
506
505
504
499
499
507
508
503
502
506
507
507
511
509
506
508
510
512
511
509
510
510
505
507
516
516
509
507
511
513
511
509
508
510
511
510
514
515
510
513
512
509
512
515
512
509
508
511
515
517
513
510
509
511
516
519
508
509
512
511
511
515
516
513
511
509
516
517
511
511
511
511
510
514
515
508
509
513
516
513
507
510
515
514
512
518
517
503
496
491
494
507
528
560
586
594
588
574
547
520
512
512
508
510
514
510
505
505
505
507
511
512
509
505
506
512
514
509
505
507
511
508
511
512
510
510
508
516
515
511
510
511
508
508
515
516
509
506
508
514
514
512
509
510
512
510
515
519
516
514
515
513
516
516
516
514
510
513
517
519
517
513
515
515
517
520
516
515
517
517
517
518
520
517
516
512
517
523
518
514
513
517
516
519
520
514
510
514
516
518
516
513
515
514
510
514
519
515
511
510
514
516
513
507
505
504
506
507
508
505
502
507
506
505
507
507
504
501
497
493
490
484
480
491
514
553
584
594
578
562
540
516
505
504
503
502
500
500
505
504
499
498
497
497
501
505
502
496
497
499
503
501
496
500
502
499
498
505
506
500
500
499
501
500
500
499
496
498
502
508
506
500
504
505
505
505
506
507
505
505
505
510
511
509
510
506
507
514
514
507
505
508
510
509
510
511
510
508
508
513
511
510
511
513
509
509
517
517
510
508
511
517
515
510
510
511
512
511
515
516
511
510
511
510
513
513
512
510
507
509
517
516
511
510
514
517
519
518
515
513
513
515
516
517
516
515
517
510
517
520
513
511
512
514
514
515
508
493
486
487
500
522
553
589
604
595
571
552
531
514
510
510
514
512
507
505
503
504
504
508
507
501
499
503
503
503
503
501
501
500
499
504
507
504
503
502
500
506
507
505
498
500
504
503
503
504
502
501
501
504
509
505
503
504
504
505
509
513
508
503
505
513
513
507
506
508
506
505
509
512
507
505
506
507
508
508
506
505
502
503
510
511
506
504
508
509
509
509
507
506
504
504
505
509
510
507
507
502
508
512
509
506
503
507
510
512
511
509
507
505
509
514
507
506
508
509
505
510
517
514
509
507
511
516
511
507
508
509
508
511
515
513
510
510
512
512
512
511
510
505
493
489
491
495
509
541
581
610
610
590
564
532
513
510
511
510
507
505
502
500
504
504
501
499
499
501
505
509
503
500
498
500
505
504
499
501
502
499
499
503
503
498
498
498
503
503
500
501
498
499
503
508
507
503
504
506
510
509
509
512
510
509
509
516
517
513
514
512
515
519
517
513
509
510
512
514
512
512
511
508
508
511
513
511
508
508
505
508
514
515
511
508
511
518
515
509
511
513
511
511
515
517
512
512
513
515
515
514
515
512
508
510
519
518
510
510
512
513
514
511
510
510
512
512
514
513
511
512
513
510
516
520
517
511
509
513
517
519
514
513
511
509
515
515
511
511
510
514
506
511
507
493
483
480
494
518
544
575
593
589
571
551
526
506
503
509
510
506
505
506
504
501
499
506
508
500
502
501
504
509
507
504
503
501
503
507
506
505
506
508
503
504
509
507
503
506
504
506
510
511
506
505
504
509
512
505
505
507
509
507
510
515
513
511
510
512
515
513
514
513
510
510
517
519
517
513
516
516
516
513
511
510
510
510
513
518
513
511
511
509
513
519
516
513
511
514
515
518
516
513
514
511
514
515
513
511
511
511
507
512
516
512
507
504
510
514
509
504
506
509
509
512
515
515
513
512
513
514
514
512
513
509
506
510
518
512
505
506
506
508
508
505
506
502
494
488
485
486
496
520
551
577
588
579
556
529
509
503
504
505
502
503
501
501
504
501
498
498
499
498
497
502
504
501
499
497
504
505
500
500
501
500
499
507
503
498
498
499
502
501
497
500
499
496
494
501
505
499
499
500
503
505
505
504
502
503
504
508
505
501
504
504
503
506
508
506
503
505
504
508
511
508
505
504
504
509
510
504
504
508
507
504
506
510
507
503
504
507
509
508
506
505
503
503
509
512
504
504
505
509
507
504
506
508
505
505
509
512
508
506
506
502
508
512
507
505
508
510
512
513
510
511
510
510
513
514
512
510
511
511
507
513
519
513
510
510
513
511
496
487
489
501
523
569
599
607
597
574
553
526
514
513
514
509
506
511
515
507
502
504
504
507
507
503
505
504
508
508
510
509
508
511
508
508
511
511
506
507
506
508
510
510
505
505
500
506
509
504
503
507
509
508
509
515
516
512
511
514
520
520
516
515
516
515
517
522
517
515
516
517
519
516
516
519
516
514
514
521
520
514
514
515
517
518
516
513
511
515
517
520
516
515
516
514
514
514
514
514
512
512
513
517
519
516
514
512
515
519
518
512
512
515
514
515
516
517
515
513
516
520
521
517
515
515
513
514
519
518
510
509
513
515
513
507
510
509
507
507
511
509
499
492
486
486
503
530
571
596
606
600
580
549
523
511
511
509
510
511
503
502
502
502
500
504
505
501
496
497
503
505
500
498
501
500
497
502
503
499
499
499
502
500
499
501
501
497
496
502
503
498
496
500
504
505
505
503
504
503
504
509
508
506
509
514
509
510
514
513
508
507
508
513
513
511
507
507
506
508
511
504
505
506
509
505
507
512
511
507
506
511
514
509
511
509
510
509
513
516
509
508
510
513
513
510
508
512
509
507
509
512
511
508
507
508
513
512
509
506
507
507
513
514
509
509
512
509
511
511
511
510
507
508
510
514
515
511
507
507
509
510
500
486
482
482
485
506
538
572
591
588
576
554
524
508
502
501
500
503
506
500
493
495
498
500
499
494
497
498
497
498
501
501
500
502
499
500
502
501
502
496
498
501
504
504
499
500
499
500
500
497
494
498
500
500
502
505
508
505
502
505
512
511
507
507
510
510
510
513
510
507
508
508
511
507
504
507
507
503
505
510
510
504
503
507
512
515
510
509
508
508
509
515
512
508
512
512
510
511
513
514
510
508
510
514
513
509
508
508
507
511
510
503
505
507
508
507
507
511
514
510
509
515
515
509
510
509
508
507
514
517
508
508
510
515
512
505
506
510
503
495
493
490
486
497
522
558
585
591
581
558
532
515
511
508
502
504
507
503
505
503
503
502
500
500
503
506
506
503
499
498
506
508
502
498
501
505
504
505
505
501
500
499
502
503
499
499
502
500
498
503
507
502
500
501
506
506
503
501
505
506
505
508
508
505
506
506
504
507
511
507
505
501
503
506
507
505
501
504
503
506
509
504
504
506
506
504
507
508
505
503
499
504
508
503
499
498
501
500
504
504
499
498
500
503
505
499
499
503
502
498
502
506
502
498
497
501
506
507
505
505
504
505
508
511
505
503
507
507
507
509
508
508
507
506
511
515
511
503
493
487
486
493
507
531
569
597
598
585
562
533
517
506
506
513
512
509
506
506
505
507
510
509
502
503
506
512
509
504
507
510
506
507
512
513
505
504
504
507
506
506
506
503
503
506
511
509
504
507
510
509
511
511
510
511
510
516
518
519
518
518
514
516
521
522
516
513
518
519
515
517
516
516
516
515
519
519
513
514
518
514
513
519
521
515
511
515
521
518
514
513
513
514
513
518
517
514
518
517
515
516
517
516
515
512
515
520
520
518
515
517
516
519
520
516
514
518
520
520
521
524
518
515
510
516
520
514
512
511
513
512
519
518
513
511
514
517
518
502
494
490
487
493
522
561
591
605
600
584
558
529
513
509
509
511
513
513
505
503
507
507
506
507
506
503
503
503
505
507
507
504
502
500
503
506
504
498
501
505
503
502
503
503
502
500
501
505
505
501
502
501
501
507
512
509
503
505
511
518
514
508
512
515
514
514
519
516
510
510
511
514
516
515
515
510
510
512
518
516
510
513
514
514
515
514
512
512
514
514
517
518
516
521
514
517
523
522
516
514
518
520
521
521
517
515
518
517
521
521
516
517
518
513
514
523
521
514
512
517
527
524
518
518
520
521
519
524
525
519
519
519
517
518
517
517
515
511
514
520
516
504
496
492
492
505
529
559
592
608
601
582
557
531
517
511
509
516
517
509
506
507
507
507
510
510
503
502
505
509
507
503
505
510
506
502
507
510
504
502
500
504
504
501
500
498
497
500
506
505
498
500
506
504
504
506
506
505
505
506
512
514
513
510
507
505
511
516
510
504
507
511
509
510
511
509
506
505
510
511
508
507
508
506
505
512
514
509
504
505
514
514
509
505
508
508
505
508
512
508
511
510
508
510
510
508
508
502
504
509
510
507
501
506
507
507
507
507
507
507
509
508
511
511
508
505
500
505
509
506
501
498
502
504
505
505
502
502
502
498
492
483
478
487
507
535
571
594
588
568
540
519
510
502
497
497
497
493
495
497
495
491
493
495
493
495
496
497
495
493
497
503
502
496
495
496
499
499
496
492
493
494
494
493
494
495
494
491
491
497
499
494
495
496
497
501
503
503
500
502
506
510
509
503
505
506
504
503
506
508
502
502
501
506
507
504
504
501
501
504
511
508
502
504
505
507
506
506
507
505
504
506
511
512
508
508
505
507
511
510
504
500
504
508
509
508
507
508
506
505
509
509
505
504
506
504
503
511
511
505
501
504
512
510
504
504
507
505
504
507
510
504
504
509
507
507
501
494
485
477
484
509
537
565
586
590
581
557
527
508
499
499
501
501
501
499
501
500
496
502
506
500
496
497
500
503
504
503
499
499
499
504
503
499
499
500
500
495
500
504
497
494
493
501
503
499
498
499
502
502
509
510
506
507
510
513
511
512
514
514
511
509
516
521
515
511
511
513
517
517
512
509
508
509
512
512
512
511
513
509
510
516
515
516
513
513
514
519
519
514
511
512
520
521
513
510
513
513
510
511
516
511
509
510
511
515
514
512
512
508
509
516
520
514
511
513
515
517
517
516
517
514
514
516
520
520
515
515
511
512
518
515
511
508
512
514
514
512
507
501
492
490
492
506
532
571
603
603
596
576
544
519
505
510
518
512
503
503
505
502
504
505
503
498
498
500
501
501
500
502
498
495
498
507
508
499
501
504
504
507
501
501
500
501
505
505
505
504
504
503
502
507
510
506
504
505
509
514
513
513
511
510
510
516
515
507
510
512
510
507
514
517
512
510
509
517
518
513
513
513
510
510
516
516
510
510
513
515
515
513
517
515
511
509
516
518
511
509
509
511
517
517
515
513
513
514
519
515
513
514
512
509
512
516
512
509
509
509
510
517
516
511
508
509
516
518
509
509
512
513
511
514
517
513
510
511
514
514
513
511
511
506
508
516
514
497
487
486
487
500
525
563
596
604
595
575
546
524
512
513
509
513
516
511
507
507
509
511
514
513
511
510
508
511
514
512
513
514
514
509
513
515
514
508
506
512
517
512
507
508
510
508
512
514
511
509
510
513
513
515
515
516
514
512
515
525
519
514
517
518
521
522
518
518
516
516
518
520
520
517
518
515
515
520
522
517
515
517
520
524
523
519
519
521
546
584
605
622
638
657
666
676
690
696
699
697
700
710
710
702
702
703
700
700
705
699
693
691
691
692
686
683
682
678
674
673
682
682
676
674
672
675
676
670
666
665
665
665
666
665
658
658
653
650
649
650
645
640
634
623
618
619
619
630
655
689
715
717
692
671
649
630
621
624
627
620
614
610
610
609
606
602
599
592
591
597
594
583
581
583
584
581
575
574
573
569
568
571
571
568
567
566
566
570
574
568
561
559
561
561
560
555
552
550
546
548
546
540
537
540
537
530
533
535
531
520
517
520
520
511
507
507
505
500
500
501
491
487
485
483
479
476
476
473
467
463
467
471
463
458
457
457
458
461
452
448
445
445
444
442
441
438
437
430
429
432
431
423
418
419
418
419
419
415
413
412
414
415
408
405
407
409
405
405
407
406
402
398
397
402
401
397
396
395
391
391
388
375
367
368
381
406
436
462
474
464
445
419
404
396
390
391
390
390
391
390
388
386
388
391
392
391
391
394
392
392
395
395
393
394
395
394
396
401
400
397
395
397
404
403
397
400
404
404
404
407
409
408
409
410
415
418
419
420
418
418
421
429
430
422
424
428
429
428
426
428
430
431
432
435
436
435
435
437
433
438
442
439
435
435
442
445
445
442
444
444
443
448
449
445
445
450
450
448
454
459
459
455
457
464
466
462
461
464
463
462
468
469
464
463
465
469
467
466
470
470
468
470
479
484
476
474
477
478
480
481
479
478
479
481
488
484
483
484
484
480
482
483
474
462
458
464
485
517
552
571
571
559
541
516
491
485
491
496
491
492
495
494
491
490
494
497
493
493
495
494
495
501
504
497
497
501
504
504
503
503
505
502
500
503
509
507
504
504
503
506
509
509
506
505
508
513
516
514
514
518
516
519
524
523
523
521
522
520
523
525
522
519
516
522
525
521
517
521
525
523
525
526
526
525
526
529
529
528
529
530
529
527
532
537
534
528
530
533
534
537
530
533
534
534
536
542
539
538
539
536
538
541
541
539
535
537
541
544
542
536
539
539
541
544
540
539
543
544
543
542
547
549
544
542
543
550
548
543
544
546
546
547
551
550
545
547
547
544
530
520
524
530
547
583
628
649
638
618
595
571
555
550
550
547
547
547
550
546
544
547
545
542
545
545
545
541
539
541
545
545
542
538
537
538
543
546
535
535
538
537
534
537
539
537
533
532
538
536
533
533
533
534
537
544
545
535
537
541
545
544
539
540
542
538
537
540
542
539
537
536
534
535
536
534
529
529
531
533
532
526
526
528
523
525
526
525
524
523
522
523
525
526
523
518
518
523
524
515
511
513
515
511
515
515
512
510
510
514
513
512
514
513
510
508
514
516
509
504
506
508
509
509
507
508
505
506
508
508
506
506
507
505
508
511
510
506
505
506
508
510
508
501
496
489
484
481
478
492
524
563
589
597
588
562
529
503
498
503
500
495
496
494
493
496
500
494
491
493
495
497
494
496
501
500
498
503
511
514
519
526
533
537
539
538
540
537
539
540
541
536
535
538
534
533
535
537
536
535
534
536
539
541
538
536
536
538
543
541
537
536
540
537
535
535
538
535
529
528
534
532
526
526
524
523
524
533
532
522
523
526
526
524
519
523
523
520
518
524
524
519
518
516
514
518
518
515
508
509
513
516
513
506
505
505
501
504
502
495
492
487
483
478
479
480
475
468
464
465
460
447
441
440
438
432
432
431
418
411
406
405
402
399
399
401
396
397
402
400
388
380
382
397
424
465
495
509
502
482
458
432
421
423
425
419
420
423
420
417
414
417
420
424
425
421
421
422
428
428
419
417
421
422
419
422
427
427
424
423
429
436
432
431
431
434
433
440
443
437
436
443
449
451
450
452
458
458
456
462
467
464
464
465
468
474
477
476
472
471
473
477
479
476
477
484
484
485
489
488
486
488
489
492
495
496
495
494
494
501
505
501
497
501
507
505
506
510
509
508
507
507
511
509
508
509
508
507
513
518
516
509
511
516
519
516
514
519
520
519
520
528
526
522
524
523
525
529
532
529
524
525
530
532
530
524
528
529
530
535
529
522
515
507
504
515
539
571
604
614
613
602
574
542
527
529
531
532
532
528
525
527
527
530
529
526
528
529
524
526
534
533
525
527
528
533
531
527
526
523
525
526
530
528
524
525
525
524
528
529
531
528
527
531
537
537
533
532
532
534
538
539
532
533
538
539
538
538
538
536
533
532
538
539
532
532
536
533
533
537
537
528
528
532
535
530
526
527
528
525
523
531
533
528
526
525
528
530
527
527
522
522
525
529
526
523
522
526
522
522
524
524
521
521
520
522
522
525
524
519
518
526
528
521
516
519
522
518
521
523
520
515
513
517
517
513
512
509
497
488
491
500
511
535
571
598
595
576
549
529
515
508
511
515
508
504
505
501
504
508
507
506
500
503
508
508
507
501
505
505
507
507
505
499
501
503
502
505
507
507
505
502
509
516
513
510
508
511
512
516
518
515
515
519
521
522
521
520
522
523
518
521
529
524
520
518
520
526
524
521
521
522
525
526
529
525
522
523
525
523
525
524
523
521
519
523
529
529
525
523
521
523
526
523
517
520
525
524
522
523
521
519
515
514
521
521
516
516
516
516
518
519
517
510
512
516
519
513
508
510
510
507
506
514
513
507
508
506
506
499
489
482
475
482
505
542
572
584
584
570
542
515
500
495
493
494
493
496
495
493
492
487
488
495
497
489
485
489
493
494
494
493
492
489
491
494
494
489
490
493
489
489
497
499
492
491
496
504
502
495
496
501
498
497
503
504
500
499
502
502
503
504
506
504
501
504
514
513
507
507
511
512
514
513
509
507
508
511
509
510
511
512
510
505
511
516
512
507
507
509
510
518
516
512
509
511
516
514
509
509
511
508
503
510
515
508
505
503
506
509
506
506
506
507
510
515
514
508
508
511
509
508
509
510
507
505
503
508
510
508
507
506
504
505
498
486
478
481
503
532
574
601
604
586
558
532
515
504
502
503
500
496
498
501
495
489
491
495
497
490
490
493
494
492
492
497
494
492
492
491
494
496
496
495
490
492
498
504
501
496
501
501
501
501
501
500
499
501
504
508
512
509
508
503
507
514
511
505
502
508
512
511
511
510
510
512
512
515
512
510
512
517
508
512
518
516
512
507
512
518
514
508
509
511
510
511
516
515
510
513
514
513
514
514
514
509
506
508
518
513
507
506
508
509
513
511
508
505
507
510
512
514
515
515
510
507
513
517
508
505
504
508
510
512
510
507
505
507
515
513
507
504
497
487
480
488
506
526
562
594
609
599
569
539
513
501
504
510
507
498
498
503
502
499
499
500
497
496
495
502
503
498
496
494
492
500
502
496
493
492
497
496
495
495
498
496
493
497
501
497
496
497
496
495
503
509
502
498
501
509
508
503
504
508
506
504
511
512
507
506
507
509
508
508
508
506
501
505
514
516
509
508
512
512
514
514
513
511
510
513
514
516
516
515
515
510
515
521
515
509
509
513
514
515
514
513
513
513
518
517
511
511
513
514
507
513
518
513
508
506
514
520
514
510
514
512
510
514
515
509
508
508
510
509
510
511
510
507
502
509
514
507
496
490
480
482
494
511
543
575
590
586
568
544
519
510
502
502
507
506
502
500
498
499
505
507
504
501
500
503
507
502
498
501
503
500
503
506
505
500
499
498
504
503
501
501
500
499
503
513
505
501
503
505
509
504
504
507
504
503
503
509
510
506
506
503
506
510
512
507
506
509
511
512
509
508
510
507
511
511
513
511
512
513
510
512
517
516
511
509
510
519
516
509
511
517
516
515
519
521
516
515
519
518
517
516
516
512
511
511
521
519
510
512
513
514
515
512
514
511
514
517
520
519
517
517
514
510
516
521
516
513
514
517
518
518
515
515
513
512
516
513
499
494
492
491
500
532
570
590
592
582
569
544
518
507
507
507
507
511
509
501
502
503
506
502
500
506
506
502
501
509
509
504
502
504
502
505
509
503
501
502
505
509
506
506
507
506
503
506
511
510
507
506
506
507
513
513
507
504
504
509
513
505
506
510
511
507
510
517
515
512
511
513
515
514
512
513
511
510
516
518
509
507
511
512
512
514
511
513
508
508
511
515
514
512
511
508
512
516
514
509
508
511
513
514
511
508
510
508
511
512
510
509
510
511
507
511
515
511
507
508
513
518
513
509
510
513
509
511
511
508
505
504
506
506
506
507
507
503
501
505
510
501
486
482
481
489
509
537
576
596
595
579
555
528
508
504
500
500
504
505
498
492
493
493
495
495
491
492
491
496
500
496
492
494
498
494
493
497
499
495
492
493
499
499
495
494
493
493
494
499
497
492
495
498
501
499
499
503
501
498
499
509
511
505
504
507
509
514
514
510
507
508
510
514
510
509
512
510
508
510
513
510
508
507
508
509
514
512
509
505
506
515
514
505
504
508
508
510
510
513
510
508
510
509
510
509
508
506
503
504
511
513
503
503
507
513
510
507
508
508
508
507
511
514
513
513
514
510
513
516
515
510
511
514
516
515
510
512
512
508
511
513
509
509
508
501
488
487
492
498
517
552
594
614
606
581
557
530
513
514
516
513
510
510
511
511
510
511
511
506
503
512
516
510
505
507
507
507
507
503
504
505
510
511
510
508
509
513
506
507
511
513
509
510
510
513
515
516
511
510
510
515
519
512
510
514
515
513
513
519
519
516
513
517
522
518
516
515
517
515
517
522
514
512
516
518
519
515
516
521
517
514
515
523
522
518
519
520
522
523
522
520
518
520
522
524
520
516
521
519
518
518
518
517
515
515
516
518
521
521
517
514
518
522
518
515
516
522
521
520
524
523
522
518
516
519
519
514
514
512
510
515
519
515
506
508
511
510
501
490
488
492
506
533
573
599
600
587
563
537
519
511
509
504
505
508
510
507
501
503
503
502
504
503
502
503
506
505
504
507
507
506
502
504
512
513
505
504
506
507
506
509
507
501
505
506
511
506
503
510
508
503
505
515
516
509
508
512
514
516
514
514
514
516
518
523
518
515
519
521
518
519
520
520
518
516
518
521
520
517
517
516
517
522
523
514
512
516
517
514
514
518
517
515
512
518
521
515
514
514
513
513
519
522
515
512
516
520
516
509
511
515
512
509
517
519
515
515
514
516
517
516
517
513
512
515
520
521
512
513
517
513
517
513
514
512
504
497
490
490
497
512
537
567
594
596
576
547
525
516
507
508
509
507
505
504
505
507
503
503
505
502
499
504
510
505
498
500
505
505
500
498
502
503
501
503
504
499
501
502
500
501
502
501
500
495
496
501
505
503
497
502
501
504
505
501
500
504
505
503
504
507
506
505
501
505
510
506
502
500
504
503
505
506
502
497
501
502
504
499
498
501
502
496
500
507
504
499
497
500
505
504
502
502
501
503
505
510
504
502
506
504
502
501
503
503
501
499
502
507
504
500
500
501
507
513
512
505
506
510
509
506
507
508
508
504
501
504
506
499
496
489
479
471
464
448
427
418
421
439
460
489
516
523
506
479
459
439
429
430
430
430
428
427
428
425
425
429
436
434
429
432
436
433
434
436
435
434
435
436
440
441
441
441
438
437
445
450
445
441
445
450
452
455
455
456
456
457
463
466
463
466
471
469
468
477
481
476
472
476
484
483
479
479
483
485
488
491
493
486
488
491
490
492
494
496
493
489
489
498
498
495
494
498
499
502
505
501
501
505
506
506
506
507
508
507
503
510
515
510
507
507
510
510
514
517
511
511
515
520
520
515
517
521
520
516
522
527
522
519
518
522
523
520
518
518
518
521
526
526
517
515
517
506
498
495
501
520
551
588
618
620
600
571
541
523
522
527
522
514
514
519
517
516
516
516
515
513
516
521
518
516
518
519
518
523
526
520
514
514
522
524
518
514
518
518
516
517
521
518
518
519
519
520
521
521
524
519
522
528
533
527
521
527
531
530
529
528
527
523
524
525
528
528
525
527
521
524
528
526
521
518
520
524
525
524
521
522
522
525
527
525
519
521
523
518
520
526
526
520
518
520
528
525
518
518
519
519
518
520
518
511
509
512
510
509
509
516
512
507
508
515
512
506
502
503
505
506
504
500
498
499
501
500
497
496
497
493
484
482
479
467
465
479
507
544
577
576
558
535
511
497
486
477
477
479
476
470
475
479
471
469
467
471
470
467
468
466
464
467
474
473
466
468
470
470
468
468
469
468
467
467
472
474
473
472
471
470
478
481
476
473
478
483
483
482
483
485
485
483
486
490
484
486
487
485
483
491
494
488
482
486
495
497
492
491
493
493
492
497
502
498
498
500
501
498
498
498
500
494
496
506
507
499
496
501
505
505
502
499
497
496
497
499
501
500
499
499
493
500
507
506
502
499
502
505
507
508
506
504
502
508
510
507
507
510
512
506
510
515
513
507
504
505
503
491
484
489
508
536
571
592
580
564
541
517
499
492
491
492
486
482
488
494
491
487
487
488
491
494
491
489
487
490
493
494
494
495
498
494
492
497
498
494
493
493
496
497
500
498
495
495
503
507
503
499
504
509
510
511
515
516
512
511
512
521
521
518
518
516
514
518
524
519
513
515
519
520
517
516
519
517
517
517
525
526
522
527
523
524
528
528
523
519
523
530
531
531
527
530
526
527
528
530
528
527
529
526
526
530
528
524
518
521
529
531
523
524
528
527
528
531
533
526
526
529
530
529
528
529
528
521
521
532
531
522
521
523
528
527
519
513
501
497
504
524
551
587
615
618
600
581
557
533
522
520
527
530
525
522
520
517
516
521
518
511
511
514
514
509
514
519
514
509
506
515
516
511
509
511
510
508
513
513
507
507
510
516
512
510
513
514
511
508
517
522
515
513
513
516
520
519
516
514
514
517
522
519
517
518
520
516
517
521
519
515
515
514
517
520
520
515
512
508
514
518
509
508
512
513
509
509
513
511
509
510
513
515
513
512
512
507
506
516
518
508
504
508
513
512
507
505
508
505
504
506
508
507
506
508
505
510
515
512
506
504
507
512
514
510
507
509
506
509
511
510
508
507
507
505
508
510
504
492
481
482
494
506
530
570
599
599
588
563
532
510
505
509
509
504
501
501
499
494
500
508
504
500
500
502
503
503
499
499
500
498
499
501
497
496
498
497
493
496
501
499
495
493
498
504
504
501
503
502
504
509
507
504
505
508
509
507
513
516
513
508
509
516
517
511
511
513
512
514
518
516
510
510
513
520
516
514
518
518
517
511
521
523
514
512
514
518
521
518
516
513
512
516
523
518
513
516
519
517
516
519
518
517
515
514
518
522
520
519
515
515
520
524
515
513
515
517
517
518
520
518
515
514
519
522
520
520
519
513
513
520
521
511
509
513
521
519
514
515
517
515
514
518
521
514
506
498
490
488
499
519
546
577
596
598
580
547
524
513
506
508
508
505
503
504
506
504
505
505
504
499
497
504
510
505
501
505
506
503
508
511
506
506
506
509
505
500
501
504
501
496
504
511
504
500
502
508
506
503
502
503
503
507
513
511
506
507
513
509
507
509
512
509
506
506
510
511
509
506
509
508
512
515
508
502
505
508
507
507
509
511
510
506
507
513
509
507
507
509
507
511
514
509
505
506
512
512
503
500
507
507
504
506
512
508
503
502
506
508
507
506
503
500
501
507
510
502
502
508
509
512
508
509
508
505
507
505
510
512
508
507
505
509
514
511
503
504
507
509
506
497
489
484
482
493
516
546
575
587
582
564
542
523
509
499
499
504
507
501
495
498
498
494
497
500
498
497
500
500
498
498
499
502
496
495
498
505
502
495
496
499
499
499
496
497
497
498
499
498
500
500
500
497
499
505
507
502
500
503
506
507
511
509
508
507
509
514
512
506
509
510
506
506
513
516
509
506
506
514
512
508
507
508
507
509
515
511
506
509
514
515
511
512
518
515
511
512
518
520
515
514
514
514
517
519
513
509
512
514
514
511
513
518
514
509
513
516
512
511
511
513
513
516
516
510
507
512
520
520
511
514
521
519
516
519
522
517
514
515
519
518
517
517
514
509
510
518
518
501
495
493
492
498
517
554
591
605
602
589
562
533
518
515
512
517
519
513
504
505
510
511
510
507
508
508
505
509
509
506
508
511
510
506
511
516
512
506
508
515
516
509
509
509
511
509
512
511
507
508
510
512
512
511
514
516
513
514
522
526
519
515
518
520
522
523
519
518
518
520
523
521
519
520
520
514
518
522
520
516
511
513
516
519
520
515
514
514
518
520
511
510
513
516
511
514
519
517
513
508
513
517
512
511
512
511
510
515
518
510
507
511
513
510
506
499
502
496
492
494
495
492
490
491
491
494
499
499
495
492
497
501
502
499
499
504
500
499
503
501
499
499
498
500
500
503
502
496
486
483
484
479
483
510
553
585
603
594
574
544
515
502
506
506
502
501
494
490
494
501
497
489
491
496
498
496
491
494
494
493
495
501
499
495
497
495
492
498
500
498
491
493
497
499
497
492
495
496
497
503
502
498
502
504
506
504
508
510
509
502
505
513
511
502
501
506
507
505
509
508
504
508
510
512
510
506
508
508
506
505
515
515
506
502
506
507
508
506
503
503
505
510
513
509
506
512
511
509
509
512
509
505
503
507
512
513
509
507
506
507
513
514
504
505
510
512
507
510
511
509
508
507
514
516
511
509
509
508
508
514
515
508
507
512
515
509
503
505
507
503
501
509
510
496
488
482
482
496
519
552
579
591
588
574
547
519
510
512
508
510
511
509
504
504
506
505
508
510
508
503
501
509
512
505
501
503
508
505
508
511
509
505
507
512
514
508
509
512
511
506
513
517
510
504
507
513
513
510
506
510
510
511
515
520
516
517
524
518
519
522
522
521
515
517
522
523
520
515
518
518
519
519
515
514
514
517
515
516
516
517
515
509
513
521
519
513
512
515
516
518
522
517
513
514
516
520
515
513
516
515
508
512
516
516
509
508
512
517
517
516
515
513
515
516
520
517
513
515
515
512
513
515
513
510
508
512
514
513
508
506
501
498
497
490
483
498
529
562
586
590
584
562
534
514
513
512
506
505
503
500
503
508
506
497
499
506
511
505
501
503
505
505
502
510
510
501
501
501
503
505
504
503
497
497
501
506
501
495
499
504
502
502
503
502
500
503
503
506
508
509
508
502
501
509
513
504
499
504
506
503
504
506
504
502
503
507
507
503
504
505
501
499
510
514
505
499
505
511
507
502
501
503
504
502
505
505
500
502
505
503
503
505
507
504
500
503
511
509
506
501
505
504
506
506
504
502
504
509
505
506
508
507
504
499
505
508
504
501
501
504
501
506
507
502
500
503
507
502
489
483
482
484
492
526
571
592
594
580
562
536
514
503
500
496
498
501
500
494
494
497
496
495
497
497
495
492
491
496
500
499
496
495
494
498
503
498
492
494
499
498
497
499
499
497
497
497
503
502
499
500
500
499
506
510
507
501
504
512
516
508
504
508
509
506
507
514
514
509
509
508
510
513
514
514
508
508
514
520
515
510
515
516
517
515
512
514
511
513
512
514
516
514
514
508
511
519
518
511
508
514
517
514
513
514
514
512
514
518
515
509
510
512
505
506
515
515
506
503
509
519
520
510
510
510
508
508
515
514
508
509
510
506
505
504
508
502
497
499
502
493
479
477
488
514
551
584
594
589
570
544
517
503
500
504
500
494
499
504
497
495
493
497
498
501
500
495
491
494
502
499
492
495
499
496
491
499
505
497
494
494
500
501
497
495
491
487
494
500
500
494
496
501
501
499
501
505
507
505
504
511
512
509
512
507
506
514
518
513
508
510
514
516
513
513
515
515
511
514
518
513
510
511
510
509
517
522
515
510
512
522
523
514
515
520
519
517
518
522
518
516
517
519
520
520
520
517
509
509
521
522
513
512
516
517
517
514
513
513
513
516
519
520
520
519
522
514
518
523
520
516
512
517
519
519
517
514
515
512
515
514
509
506
502
495
482
485
500
517
544
573
596
596
573
542
521
509
506
513
514
505
501
504
508
505
505
505
506
502
497
503
511
506
501
503
504
506
507
502
500
496
501
503
503
501
500
503
499
498
503
505
505
501
500
503
508
509
508
507
508
512
518
511
507
513
515
511
509
514
515
510
508
507
514
515
511
511
510
507
510
518
514
506
512
515
514
510
509
513
510
509
507
513
514
509
510
508
511
518
519
515
510
513
516
520
516
514
517
514
512
514
517
513
512
512
513
512
517
517
512
507
508
517
517
508
510
514
515
513
516
518
513
511
511
512
512
512
517
513
505
508
520
518
509
509
514
513
506
494
489
484
489
509
541
575
592
591
577
547
528
519
511
504
504
506
507
506
502
502
502
501
506
505
499
500
503
503
497
500
508
503
497
494
504
508
499
498
500
499
499
507
508
501
502
506
511
506
504
507
509
503
501
511
517
510
507
510
509
511
513
510
507
506
510
514
509
506
508
510
506
507
512
513
508
505
505
507
512
511
506
504
503
509
513
504
502
504
509
504
504
510
511
508
505
507
510
509
507
508
507
505
511
516
506
501
507
511
510
505
504
506
503
502
505
510
507
505
506
504
507
515
516
513
510
513
517
518
514
512
514
511
513
513
509
509
508
510
507
510
516
515
510
506
504
504
493
484
493
517
553
588
605
600
577
551
527
516
510
510
512
507
500
503
511
508
499
502
505
506
504
503
504
503
503
503
505
504
502
504
501
498
504
506
504
497
496
500
504
503
498
501
500
502
505
503
497
500
505
506
505
509
513
510
506
506
515
516
510
512
512
510
510
516
519
509
510
512
514
512
507
513
512
506
503
513
514
506
503
506
508
512
512
511
507
507
512
516
510
506
511
513
508
509
514
513
508
507
510
513
514
513
510
505
501
510
512
503
501
505
509
502
503
508
507
505
505
508
510
506
506
507
504
502
508
511
503
501
506
511
508
502
502
507
503
502
505
507
506
504
504
503
505
508
506
499
497
501
506
508
499
494
489
479
483
491
512
546
582
598
588
574
551
521
501
493
504
508
499
491
493
496
492
494
494
492
491
491
493
492
488
488
489
483
478
483
489
485
477
479
483
486
485
482
484
483
483
486
488
484
485
489
486
484
487
492
489
485
489
494
499
499
494
496
495
499
503
499
497
502
506
504
500
505
508
505
500
503
510
507
503
501
502
500
504
509
505
501
501
506
508
503
504
512
511
504
504
516
518
513
512
514
515
515
516
514
510
511
514
518
512
511
517
516
511
511
512
514
510
510
514
516
514
512
511
509
509
517
518
508
508
515
517
515
514
517
517
515
516
520
522
519
519
518
514
512
523
525
514
512
518
527
522
517
519
522
518
516
519
514
502
496
495
505
528
562
593
599
592
577
557
530
511
510
513
509
510
509
507
508
509
509
507
508
509
514
505
503
511
515
510
502
506
510
507
510
512
506
504
505
509
506
500
505
508
503
500
507
511
503
498
502
509
509
507
505
507
507
512
518
517
512
515
517
513
515
519
521
517
511
513
518
517
515
510
512
509
515
517
509
506
506
511
508
507
513
517
514
509
513
516
511
510
510
513
512
518
520
511
507
510
516
519
508
508
514
511
504
509
514
509
506
505
507
508
507
506
505
502
506
512
515
507
505
511
513
509
508
510
512
508
506
509
514
516
513
509
505
508
513
509
499
501
507
508
506
504
505
504
504
504
508
498
488
484
482
486
508
544
573
580
579
569
549
520
502
500
502
499
497
499
500
496
497
497
496
499
499
500
492
489
495
502
498
491
497
499
498
497
494
493
495
498
500
499
498
498
499
493
494
502
504
497
494
498
500
500
501
499
495
497
499
504
501
494
501
503
498
496
505
508
499
495
498
507
505
501
502
504
504
505
510
507
502
508
511
509
507
507
507
504
501
504
510
510
506
505
507
507
513
514
506
504
510
513
511
509
511
514
509
505
509
515
509
508
507
508
506
511
514
505
503
507
513
510
501
505
514
511
506
510
514
508
507
511
513
515
514
513
513
507
512
518
517
509
508
513
511
509
509
510
509
507
503
500
493
486
484
493
515
560
595
600
585
566
546
523
512
510
511
511
506
506
509
502
500
503
503
498
504
508
502
493
494
502
505
499
494
499
499
495
497
501
496
495
496
494
494
496
499
501
495
496
503
510
503
497
502
505
506
508
506
506
507
508
508
509
507
509
510
503
504
512
513
507
503
509
511
512
513
510
508
509
511
514
506
504
507
511
506
508
516
516
510
506
509
516
513
508
507
508
509
512
516
508
505
511
514
513
511
511
514
511
508
511
518
515
511
511
510
513
515
513
509
507
513
514
512
511
509
513
508
507
512
514
511
508
507
508
512
515
513
507
505
512
521
515
505
507
515
509
506
511
512
512
510
509
512
510
509
511
507
502
500
500
489
478
489
518
553
585
599
594
573
546
520
511
505
504
505
500
496
501
505
500
492
494
501
504
501
496
499
499
498
501
503
497
497
499
500
495
501
504
498
490
494
503
501
493
491
497
499
498
503
506
499
500
505
508
506
505
509
511
505
507
517
518
508
506
510
511
512
510
508
506
508
509
511
508
506
509
511
504
509
515
513
508
506
511
513
518
515
511
510
511
519
518
510
510
514
519
511
516
522
519
513
510
514
519
514
513
513
513
515
521
523
515
514
518
520
517
516
519
523
518
514
520
525
520
518
517
517
521
528
523
516
514
519
523
520
521
520
521
519
519
524
526
523
524
523
521
526
528
524
521
517
524
527
519
514
515
521
518
517
516
508
495
491
495
517
546
581
606
603
586
569
549
527
512
515
520
517
514
510
512
509
508
507
513
510
506
507
501
501
508
508
502
496
500
507
508
506
504
505
501
502
505
505
502
505
507
503
503
507
512
507
501
505
515
514
507
505
512
512
510
514
515
506
507
510
511
509
510
516
514
507
508
520
519
510
509
515
518
516
513
512
508
510
513
514
511
510
513
513
506
511
518
515
514
510
514
517
517
515
512
509
510
516
516
508
509
517
517
510
515
520
517
512
509
516
518
513
515
511
510
512
519
520
511
510
513
516
511
509
514
516
512
508
516
519
514
513
513
512
515
517
513
506
508
513
518
514
513
515
516
511
511
515
513
503
496
490
485
498
521
547
573
590
596
581
552
522
513
511
505
508
510
506
501
500
502
506
503
502
503
497
498
504
507
499
495
500
505
505
502
501
503
501
502
504
507
503
502
504
500
502
508
506
500
496
501
508
509
506
503
505
502
505
506
504
501
503
506
501
502
509
509
504
498
504
511
506
498
499
502
503
507
510
507
502
504
507
508
505
505
509
507
500
507
517
512
504
502
506
510
509
507
508
506
508
511
513
510
508
513
512
508
511
515
511
507
504
510
515
515
510
508
506
508
514
511
503
506
508
505
500
504
510
506
501
499
509
511
507
505
505
503
508
514
513
504
503
507
511
504
502
507
508
503
497
498
493
484
486
500
529
570
597
601
583
558
535
519
506
502
506
506
501
502
504
502
497
496
495
494
498
498
495
487
488
499
501
491
489
493
495
491
495
500
498
496
495
498
498
495
497
498
491
494
505
507
496
493
498
510
506
501
503
506
504
507
513
512
508
510
512
507
507
512
512
506
502
509
517
512
504
504
506
503
507
508
504
500
502
504
500
504
510
510
504
499
506
513
508
503
504
505
502
507
510
508
504
506
511
506
501
503
507
502
496
505
511
503
498
498
503
508
508
506
505
501
503
511
509
505
506
510
510
506
510
513
510
506
507
512
517
515
509
509
505
510
514
506
501
502
509
507
504
508
510
510
504
504
504
493
483
481
488
506
549
588
598
587
569
545
522
500
494
501
499
493
491
497
494
489
490
489
492
497
496
494
488
490
495
504
496
493
497
496
494
495
498
496
493
493
492
494
498
496
494
488
493
501
499
490
490
495
495
496
497
498
499
499
501
506
506
504
506
506
500
505
515
515
507
504
508
513
510
504
505
507
504
505
509
508
504
507
509
506
509
512
512
506
504
511
519
516
510
511
513
513
516
516
515
514
515
516
517
516
519
519
512
511
516
520
512
509
512
514
512
514
513
510
510
511
517
512
508
511
515
508
504
514
518
510
506
508
513
512
509
508
508
506
511
518
513
504
507
512
509
506
508
511
507
503
502
511
513
506
496
486
478
482
496
512
543
577
592
584
562
538
521
507
501
504
507
501
499
501
500
497
502
504
497
494
497
504
502
495
496
503
500
496
499
505
501
499
499
501
501
502
505
501
496
498
508
509
499
500
507
508
510
507
510
510
511
511
512
513
511
512
511
506
512
518
513
505
507
513
517
515
512
512
511
511
517
517
510
511
516
514
506
511
519
515
509
511
517
518
511
508
512
513
511
515
515
507
506
510
512
508
508
512
514
507
506
513
519
514
509
510
510
512
514
511
510
510
511
512
509
511
512
513
504
505
510
513
506
506
510
510
512
513
509
508
508
513
516
506
504
508
512
505
505
512
514
507
503
498
493
485
484
499
520
551
584
596
582
558
538
520
507
499
499
504
498
494
