343
349
358
356
343
348
350
327
389
366
343
354
344
345
353
356
346
350
355
359
351
351
359
363
348
340
345
349
342
339
345
351
347
341
349
355
350
344
349
356
354
346
352
361
361
358
359
364
366
355
332
382
417
339
360
365
368
358
359
365
371
361
360
367
372
366
366
368
364
353
349
354
360
354
347
353
358
352
345
349
353
350
341
345
350
347
338
341
346
345
334
336
344
343
330
329
333
316
314
379
305
325
313
310
314
315
305
304
309
311
303
301
307
313
304
293
294
297
292
286
289
294
292
285
290
295
295
287
292
300
300
292
297
305
307
299
303
312
316
312
311
317
322
313
288
354
360
303
320
327
331
325
323
330
338
331
328
334
344
341
335
338
339
332
325
330
337
335
328
333
340
339
330
333
339
339
330
334
340
342
332
334
341
345
336
340
353
359
351
351
360
351
337
412
343
358
351
350
358
367
362
359
369
377
374
368
373
382
378
360
358
360
357
346
348
351
350
338
340
345
344
332
330
333
335
323
322
327
330
319
318
324
330
324
318
321
324
314
280
325
373
288
304
309
314
309
303
308
314
311
302
307
313
312
304
305
304
300
288
292
298
300
289
292
298
300
290
290
298
302
292
291
296
303
293
291
298
304
301
294
298
304
298
265
317
351
278
292
298
305
303
295
299
309
308
300
305
315
318
308
309
310
309
298
301
308
314
304
309
317
322
314
315
324
329
322
323
329
336
332
330
337
340
336
322
320
405
331
330
343
349
346
339
345
354
354
347
352
359
361
353
356
355
350
339
341
348
352
341
344
350
353
342
341
348
351
342
340
346
351
345
341
346
349
342
330
313
401
346
325
339
344
339
332
337
345
342
334
340
346
347
338
343
344
338
326
328
336
338
326
328
335
337
326
327
333
336
327
326
333
339
331
327
330
336
328
294
357
378
311
324
329
334
330
322
330
337
333
326
332
340
339
332
332
333
331
318
322
330
332
322
325
331
334
322
324
331
335
325
326
335
344
333
330
337
344
305
361
383
331
343
337
345
356
352
348
358
367
367
362
372
384
386
378
380
388
390
382
392
400
404
396
400
409
413
404
409
416
418
408
411
417
419
405
402
400
386
452
383
387
392
380
369
370
369
358
348
348
349
340
329
333
334
323
308
310
307
313
302
304
309
311
299
303
309
314
304
305
316
325
310
311
318
309
294
375
307
326
316
315
320
325
317
313
320
325
316
312
321
327
316
304
308
313
309
300
307
313
311
303
309
315
312
301
302
308
311
297
295
301
302
275
281
356
276
289
287
295
299
289
288
296
304
293
291
298
304
300
293
294
298
290
284
292
299
295
289
296
302
299
290
296
305
306
298
301
305
307
294
279
354
317
292
306
314
320
312
315
324
332
323
323
332
339
331
329
331
334
325
320
329
337
330
327
334
342
335
328
334
340
337
334
338
341
338
329
315
336
396
310
334
340
343
332
334
340
344
335
338
343
347
336
334
337
335
320
316
320
322
309
304
310
312
301
290
291
293
279
269
273
270
258
243
247
233
236
288
219
245
245
236
243
253
253
246
249
257
263
262
272
288
297
290
300
316
328
326
330
340
347
342
345
358
367
362
363
374
382
377
372
380
383
362
426
383
385
385
375
381
388
386
377
382
387
387
377
380
386
384
368
367
371
372
361
360
366
370
358
358
364
367
356
353
358
364
357
355
359
360
349
343
320
378
385
323
343
348
342
334
338
344
342
332
337
344
343
331
338
339
334
320
323
329
330
320
322
331
333
322
324
331
337
328
329
335
341
332
333
338
338
330
324
298
360
365
304
322
328
322
310
315
319
313
304
309
314
312
301
308
311
306
293
296
301
303
291
295
304
307
296
297
305
308
299
299
306
312
305
307
316
317
309
307
305
311
371
299
323
330
329
324
337
347
346
343
351
358
354
345
353
362
360
351
356
364
364
352
356
362
360
348
349
352
354
340
337
342
345
335
334
341
342
326
323
324
298
373
328
311
324
317
313
320
326
322
317
325
332
328
319
324
330
322
308
311
316
317
306
309
315
318
306
308
314
316
305
306
314
315
306
305
316
317
303
301
309
283
327
342
288
314
304
300
308
316
309
305
312
318
314
308
317
324
318
306
311
320
324
320
331
344
350
342
347
355
356
344
345
348
348
337
340
343
341
329
329
302
343
390
288
322
320
308
301
306
308
299
290
294
296
287
277
282
283
271
258
261
265
262
249
253
258
257
244
247
257
256
246
248
256
259
249
247
250
250
236
208
280
282
226
242
250
256
249
246
256
265
260
256
265
276
272
269
274
280
277
270
279
289
288
281
289
298
297
289
296
305
307
299
307
315
318
304
307
309
286
352
320
303
315
304
305
314
321
313
313
323
330
325
322
333
340
330
321
328
336
331
325
332
337
336
327
331
336
335
324
330
339
339
330
331
335
337
324
298
374
358
313
325
333
337
327
327
335
343
333
332
339
344
337
334
336
338
328
323
330
337
332
326
334
339
334
326
331
338
335
329
337
343
340
326
332
336
304
371
352
326
336
325
327
335
336
325
327
333
337
325
325
333
337
320
314
318
322
314
310
316
322
313
305
308
313
307
301
311
325
328
323
330
341
341
322
339
410
339
348
352
362
362
352
355
363
365
354
354
362
366
355
352
355
356
344
342
350
356
347
346
353
359
351
348
355
361
354
352
359
363
357
351
337
376
410
336
363
369
367
358
363
371
371
362
365
372
375
365
367
368
366
352
351
359
362
350
350
359
362
350
345
352
356
346
342
349
358
347
338
342
345
329
310
394
330
330
324
329
333
329
319
324
332
328
319
323
332
334
320
316
317
317
306
307
314
315
304
304
311
312
301
300
306
309
300
298
304
311
303
302
307
310
303
296
273
335
339
279
301
307
302
294
298
306
306
298
302
310
310
302
307
308
304
292
294
300
304
292
295
303
306
297
299
306
312
303
303
311
318
312
310
320
348
341
340
349
358
339
337
409
342
354
347
353
358
353
343
348
355
353
345
349
355
355
344
342
345
343
329
330
334
332
320
320
325
327
315
315
322
326
316
316
322
326
317
314
321
331
321
313
321
326
290
336
364
305
322
312
319
326
323
316
324
332
330
322
328
335
338
322
321
325
324
316
319
328
330
321
322
328
332
321
320
326
329
319
319
325
330
319
316
325
332
322
313
316
321
300
285
374
301
308
299
303
309
304
292
297
302
300
288
291
298
297
285
282
283
281
269
272
279
281
272
273
281
284
274
274
282
288
279
278
286
293
286
282
292
301
298
290
295
304
297
264
339
322
290
294
300
308
309
301
308
317
320
312
316
326
329
321
320
322
324
314
318
328
332
325
328
336
342
332
329
338
344
336
333
343
348
342
338
349
354
347
341
348
329
370
385
329
355
352
346
355
366
371
368
381
393
396
387
391
399
400
389
398
409
417
412
417
429
433
422
423
429
431
417
413
418
421
411
407
412
418
408
400
405
408
402
382
370
462
388
383
386
390
382
368
370
374
369
355
355
361
359
348
350
352
348
332
332
337
340
327
328
335
338
324
322
328
332
322
319
326
331
321
319
323
327
317
308
281
356
348
285
310
314
308
296
300
305
303
290
294
300
298
287
291
291
283
267
269
273
275
261
261
266
267
250
249
252
254
243
240
246
251
244
247
261
269
261
260
266
241
310
288
260
280
277
273
283
291
290
287
298
310
313
309
318
329
326
314
320
330
332
325
331
339
346
338
342
351
360
350
353
366
374
370
376
384
387
378
372
353
422
404
348
373
382
370
366
366
380
373
363
375
380
377
370
375
377
369
356
360
365
363
345
356
376
359
352
367
368
367
347
345
356
359
337
336
344
353
324
332
419
349
346
341
352
360
346
338
348
363
349
344
361
371
369
351
352
364
359
342
349
359
354
336
344
349
351
332
332
342
344
326
330
341
339
320
321
325
284
358
352
310
332
312
311
324
331
320
317
324
338
326
319
327
333
319
305
309
315
311
301
308
318
315
299
304
315
312
297
307
316
317
301
302
313
315
263
294
390
300
306
309
322
331
318
323
337
348
340
344
360
373
367
363
370
380
371
366
374
381
376
372
384
395
397
392
403
415
423
416
423
432
435
410
416
510
423
431
438
447
452
443
444
453
458
445
445
452
457
445
438
442
446
431
425
432
436
421
413
418
422
410
400
403
406
400
393
396
395
385
372
359
367
459
346
371
375
370
356
358
363
360
344
344
347
347
333
334
336
330
310
307
312
314
298
294
298
298
286
277
283
286
273
267
277
277
264
256
261
233
258
309
222
255
247
232
238
240
234
222
226
229
231
222
232
243
242
228
234
248
256
251
261
276
288
283
294
311
327
326
335
358
377
382
391
410
431
434
413
490
540
480
512
533
555
562
561
577
593
595
588
601
617
617
601
588
589
577
556
557
562
561
542
537
537
523
494
481
476
461
419
393
385
379
351
324
324
327
284
289
361
275
280
269
274
275
260
251
256
256
243
234
229
219
218
203
205
210
205
190
194
199
197
185
187
190
189
177
185
212
220
205
209
220
225
212
211
215
214
201
195
173
249
207
172
187
173
167
163
171
175
133
105
125
140
142
141
154
159
150
144
157
173
179
174
186
201
207
200
209
222
227
220
225
235
240
228
225
231
238
231
231
240
246
238
214
242
305
222
245
252
261
256
252
261
270
266
259
268
277
277
271
278
278
273
263
270
279
277
267
274
281
282
272
276
283
288
275
278
287
290
280
281
290
295
285
288
292
296
284
281
257
308
331
260
289
295
290
285
292
301
297
289
297
307
303
295
303
308
301
288
291
298
298
288
293
300
302
289
293
301
303
292
293
300
300
287
287
291
295
283
282
289
298
288
282
289
294
253
318
315
282
292
287
294
303
298
292
300
307
307
297
306
315
318
305
305
308
309
298
303
308
310
300
302
308
311
301
302
309
314
304
306
314
320
311
309
320
328
319
315
321
328
311
294
379
316
320
317
324
333
332
327
334
342
340
332
340
348
349
336
335
337
336
325
328
336
340
330
335
341
344
335
336
344
349
339
338
345
350
341
338
348
350
340
335
342
318
362
376
320
348
342
334
341
347
344
335
341
348
345
336
342
350
344
328
329
333
334
324
325
330
333
322
321
328
329
318
320
326
331
320
317
326
331
321
315
318
322
309
275
356
328
298
303
309
315
310
303
309
318
314
305
311
318
317
309
308
310
308
297
300
309
309
298
302
309
312
302
302
311
314
304
305
313
322
310
307
314
321
288
334
346
302
318
314
321
329
323
319
328
335
332
327
335
345
342
331
330
338
336
327
334
342
343
335
338
345
346
336
338
345
348
339
345
350
352
340
340
334
342
398
323
347
352
343
341
347
352
347
345
350
360
355
352
361
365
356
346
352
361
360
354
360
369
370
360
366
373
377
366
372
380
383
376
377
383
386
377
352
396
440
359
381
388
393
383
381
388
396
386
382
390
395
387
381
379
378
368
359
363
371
366
357
363
369
365
355
359
365
363
352
354
359
361
347
346
350
348
309
355
388
324
332
329
334
337
322
322
326
331
318
315
321
326
317
307
307
308
297
290
294
298
290
283
287
292
284
272
274
279
276
265
270
278
277
263
263
269
262
231
313
256
259
253
253
259
262
251
252
260
264
254
254
263
268
259
250
252
257
247
244
253
260
254
249
256
263
260
252
258
267
266
259
270
278
275
265
271
272
255
322
270
274
284
275
278
289
293
285
291
297
304
295
298
308
312
298
293
301
307
300
299
307
315
309
305
312
320
314
309
315
323
319
313
317
327
326
319
323
329
328
314
297
382
329
314
323
329
331
320
321
329
335
322
325
334
338
331
328
331
332
320
318
326
333
324
322
330
336
328
324
330
336
329
322
328
335
330
322
330
337
334
323
327
333
324
294
378
327
327
320
323
329
331
320
323
330
333
324
325
332
336
327
321
323
326
315
314
321
327
319
316
323
327
320
316
321
328
322
315
321
328
323
316
322
332
327
316
319
325
295
332
358
303
323
313
314
322
323
313
316
323
327
317
318
327
332
320
312
315
320
311
308
315
321
312
308
315
320
313
308
314
320
315
307
314
320
317
311
317
326
323
312
316
318
294
357
320
312
324
312
315
322
326
316
319
324
328
319
322
329
334
318
312
318
322
313
310
316
324
317
313
320
326
319
312
320
325
321
312
320
328
323
316
322
332
327
315
318
325
294
334
353
303
323
313
315
322
326
315
318
324
328
318
320
328
332
329
322
327
332
324
322
329
334
326
322
328
335
329
323
329
335
330
322
327
334
330
322
331
338
336
324
327
327
305
373
324
326
333
322
325
332
335
325
327
334
338
328
330
337
343
327
320
325
329
319
317
325
330
323
318
323
330
321
313
316
321
316
306
312
319
317
311
315
319
319
308
283
341
354
288
312
318
320
310
313
322
327
316
318
327
333
324
331
319
320
326
323
315
323
331
331
324
328
337
338
329
333
340
342
334
338
346
350
338
339
347
348
310
381
361
338
342
339
345
352
343
341
348
354
348
343
350
358
351
339
340
344
339
331
337
346
343
334
339
346
347
334
340
345
348
335
339
348
354
339
338
346
348
306
373
376
339
345
344
351
358
348
349
358
367
360
359
370
379
375
366
369
375
372
366
376
383
383
377
384
394
393
385
392
399
401
390
396
407
411
398
400
407
409
365
431
439
396
402
401
407
412
401
400
407
412
401
398
406
411
402
389
389
392
382
372
378
382
377
365
369
373
368
357
360
365
361
347
347
353
353
340
338
340
338
320
295
377
330
305
311
317
318
307
304
308
313
302
299
307
314
306
300
299
299
289
282
288
294
288
280
288
294
290
282
288
295
293
285
288
297
299
291
294
300
302
289
266
336
325
274
294
300
303
294
296
305
312
301
300
309
316
309
306
308
309
298
293
300
309
302
296
305
312
308
300
306
314
311
304
311
318
317
309
315
324
328
316
317
325
326
284
355
351
315
320
320
329
333
322
322
332
336
327
327
334
343
335
326
328
331
324
320
326
333
326
320
327
334
331
323
330
336
336
326
330
338
338
327
333
339
343
329
330
337
337
293
354
370
320
326
324
330
334
324
323
331
336
325
324
332
339
332
323
324
327
319
311
317
325
321
314
319
324
321
312
317
324
323
312
317
323
323
313
316
347
354
345
349
352
350
338
335
313
388
345
320
336
340
328
326
332
338
329
323
329
336
328
323
331
331
318
307
313
318
314
305
310
318
315
305
310
317
318
306
310
317
318
306
310
318
321
311
317
322
324
313
314
299
335
361
292
322
328
318
316
324
330
326
322
329
337
333
328
337
342
330
320
324
331
330
320
325
332
333
322
328
334
334
324
326
334
336
324
327
332
337
327
329
334
336
326
322
299
376
347
313
331
336
327
323
328
334
329
324
330
338
332
327
335
337
327
315
320
328
327
318
322
330
329
318
322
330
330
319
321
328
330
317
320
327
334
320
317
324
326
288
340
351
308
318
312
320
325
319
316
324
330
325
320
329
337
334
320
321
325
322
314
319
326
327
317
323
331
333
324
329
337
339
329
334
344
349
336
336
345
344
318
391
343
345
341
338
346
352
343
340
348
353
347
343
351
359
352
339
340
345
340
332
338
344
342
332
336
342
341
330
334
341
342
331
334
340
345
334
333
339
342
327
298
381
359
321
328
336
340
331
328
335
342
334
329
337
345
340
334
336
335
329
319
325
333
329
320
327
332
332
322
324
330
330
320
325
332
335
327
327
331
332
322
301
327
382
296
320
324
330
319
318
324
333
324
321
328
337
332
326
329
329
320
311
317
324
321
313
321
327
327
317
322
330
330
321
325
335
337
329
332
337
340
329
306
379
365
320
336
345
349
341
340
348
355
345
340
349
357
351
345
346
346
337
329
336
344
338
331
338
345
341
331
337
344
343
332
335
341
342
332
337
341
341
330
330
311
348
380
308
336
337
327
326
334
340
333
329
337
344
336
332
339
342
328
318
323
330
326
318
324
331
329
318
325
330
328
318
324
330
329
318
323
331
335
322
321
327
328
285
347
354
311
313
312
318
324
311
309
319
325
315
313
323
331
323
315
318
322
316
310
318
325
322
314
320
328
326
318
324
332
332
322
326
337
339
332
333
339
342
331
310
363
381
314
338
346
350
340
340
349
356
348
343
352
358
350
346
350
351
341
332
340
347
342
333
339
348
343
334
339
345
343
332
336
342
342
331
335
344
343
330
332
337
328
306
384
323
337
325
325
333
338
326
328
335
339
331
328
337
344
336
323
327
332
324
317
324
331
325
318
323
330
327
318
324
330
328
318
322
330
331
323
325
330
332
321
310
308
389
304
318
327
330
318
319
328
333
324
323
331
337
329
327
334
335
322
314
322
329
323
315
323
331
327
318
323
330
328
318
322
330
328
319
324
336
335
320
325
331
311
325
372
306
333
320
321
328
333
321
321
330
334
325
325
334
341
329
319
324
328
321
316
322
330
325
318
325
333
329
320
326
333
332
323
329
341
338
328
332
339
324
333
383
319
345
335
338
347
354
344
348
358
365
359
363
374
384
373
367
373
382
377
376
388
398
396
393
404
416
415
411
423
436
439
434
446
462
466
460
470
483
474
477
556
491
520
516
524
536
541
528
535
543
548
536
533
540
540
514
498
498
496
483
477
481
482
470
462
464
467
458
448
452
456
450
439
445
453
442
424
424
426
400
391
455
375
391
373
373
376
374
356
355
358
357
342
338
345
348
329
318
318
318
302
294
297
298
283
272
273
272
258
245
246
251
241
230
238
246
238
225
226
232
216
188
270
203
209
195
197
202
203
190
193
200
201
188
189
198
204
191
184
186
188
177
176
184
189
180
177
185
192
185
181
189
197
191
187
195
208
203
192
200
208
186
217
251
197
223
214
222
232
238
228
237
247
251
243
250
262
270
256
253
261
266
258
259
270
278
269
271
280
286
280
278
286
294
288
283
295
305
299
292
298
306
290
281
362
295
308
299
305
313
314
302
308
318
319
309
313
323
328
315
313
316
318
308
309
317
323
313
313
320
325
316
314
322
329
320
317
325
332
327
323
329
334
328
320
296
370
358
312
329
337
333
324
329
338
339
328
333
342
346
334
339
342
339
325
326
334
339
327
327
336
340
329
327
336
340
330
327
334
340
331
327
335
345
335
327
333
340
316
313
388
318
333
323
330
337
336
326
332
338
340
330
336
345
347
336
330
333
334
323
325
331
334
324
324
332
336
326
324
332
336
325
322
328
334
327
324
333
337
329
322
329
315
332
371
306
335
332
322
329
337
337
328
334
341
343
333
340
349
347
330
330
336
339
329
329
338
342
331
331
338
343
332
331
337
342
334
330
336
343
337
333
339
345
336
329
305
366
370
309
332
337
332
324
329
336
336
326
331
338
341
331
335
339
334
320
321
328
332
320
320
329
333
321
320
328
332
323
320
328
334
324
320
329
338
329
322
327
333
314
300
384
317
328
318
325
331
328
319
324
332
331
321
327
335
337
325
324
326
326
314
317
325
328
318
317
325
328
317
317
324
330
319
317
325
330
322
319
328
330
322
317
320
298
364
330
311
327
322
312
317
326
324
316
320
328
326
318
323
330
324
308
309
315
317
306
308
315
319
309
311
318
321
311
310
317
322
314
313
322
325
315
312
318
300
346
340
302
328
321
314
323
332
328
322
330
337
337
330
337
345
340
324
326
333
336
325
330
336
338
327
329
335
339
327
328
336
340
330
333
341
343
332
331
329
319
387
322
330
340
332
325
332
338
332
326
331
339
335
328
336
342
332
317
321
328
326
316
320
328
329
317
320
325
325
314
316
323
324
314
318
326
328
314
313
317
295
364
319
312
324
315
311
320
326
319
315
323
330
325
319
328
334
325
312
317
323
321
313
317
324
325
313
318
324
326
313
319
326
327
315
320
329
330
316
317
325
301
325
368
303
331
318
317
324
329
320
318
326
333
325
323
330
339
328
315
320
325
319
312
319
325
321
312
319
327
325
315
320
326
326
315
320
328
331
317
318
327
324
290
363
329
319
314
321
324
335
326
327
339
345
337
337
345
351
341
329
330
332
322
313
316
319
313
303
311
317
312
302
312
324
325
320
330
345
344
333
337
345
322
385
394
353
375
364
365
376
377
369
369
378
382
373
375
384
388
368
361
366
369
360
356
363
367
360
354
360
367
359
350
358
362
356
345
350
359
350
339
343
348
330
330
401
327
345
333
335
343
343
333
332
342
344
330
335
344
348
334
327
329
334
323
321
329
335
327
322
329
335
326
320
327
332
327
317
329
338
331
322
327
335
324
303
391
325
333
323
328
335
335
323
328
335
337
325
331
339
344
331
326
330
333
320
320
328
334
324
320
330
334
325
321
329
337
327
323
333
341
330
322
327
336
304
344
366
316
334
323
330
338
337
327
335
343
344
335
342
351
355
337
335
338
340
329
331
337
343
333
334
342
349
341
338
349
356
350
352
360
366
357
350
340
360
411
330
357
365
359
349
358
366
363
354
357
364
363
352
357
359
352
336
337
344
345
331
333
339
340
325
325
331
334
321
319
326
331
321
322
327
329
318
313
294
337
366
292
320
326
318
312
319
325
320
311
318
327
324
316
325
328
321
308
313
320
320
307
312
321
321
310
314
321
324
312
316
322
326
316
319
326
329
318
317
302
323
376
293
323
327
319
314
323
329
324
318
327
335
329
322
332
337
326
314
320
327
324
313
320
328
325
313
320
327
328
317
320
329
330
320
322
330
335
321
321
330
332
292
340
368
315
324
320
327
333
325
321
331
336
329
324
334
344
337
325
329
332
327
317
325
333
328
320
326
334
333
322
328
334
335
324
327
335
338
330
330
334
338
326
300
366
366
310
329
337
342
332
331
341
347
337
334
343
350
344
340
342
344
334
326
334
340
335
326
334
341
336
328
332
340
340
329
334
342
341
331
337
345
343
329
332
331
317
383
325
334
341
330
331
339
344
333
333
340
346
337
335
345
351
337
327
332
338
333
325
333
341
334
326
333
338
334
324
331
339
335
325
331
337
338
328
331
336
337
326
308
330
393
304
328
335
339
328
328
337
343
331
329
339
344
336
334
342
342
327
321
329
335
326
321
329
337
330
322
328
336
331
322
329
335
333
323
328
335
336
327
332
336
336
324
315
312
391
311
323
332
335
322
324
333
338
329
330
337
344
335
334
341
340
327
320
328
335
325
320
327
335
330
321
329
335
331
320
326
333
332
322
327
334
336
327
331
337
336
325
322
311
387
323
321
336
339
327
330
339
344
332
333
340
348
337
336
344
346
330
324
332
339
330
325
332
340
332
325
333
341
335
327
334
341
338
328
335
342
340
331
338
344
342
330
335
313
362
372
313
341
339
328
331
337
342
331
330
337
343
333
332
342
345
328
322
328
333
325
320
328
334
327
320
325
334
328
318
326
334
328
319
325
333
331
325
328
334
334
322
312
324
385
302
322
331
334
322
326
334
337
327
329
337
344
333
334
341
341
326
323
332
339
330
326
336
343
337
332
341
348
343
335
343
350
345
335
342
355
350
339
342
350
335
319
396
333
343
330
335
341
343
329
331
340
340
327
329
338
343
328
322
326
328
316
312
321
327
316
312
318
324
315
311
318
324
319
311
318
327
324
317
322
327
324
311
287
365
347
303
318
325
324
313
317
326
330
318
320
330
335
326
330
334
334
321
322
333
339
330
328
338
344
336
333
340
347
338
331
339
346
337
333
344
349
342
334
341
329
332
391
316
346
341
329
334
342
342
331
336
342
344
332
336
345
347
327
324
330
331
320
321
328
334
321
318
327
333
321
318
326
331
321
315
323
331
322
314
320
325
316
283
363
327
312
313
321
329
329
320
329
340
341
332
342
354
360
351
352
356
357
345
349
360
363
349
350
357
361
348
346
354
358
348
345
353
362
354
349
354
358
348
312
386
372
332
332
337
343
338
329
336
345
341
330
337
346
348
339
339
343
341
328
334
341
342
331
333
343
345
332
334
340
343
332
332
341
344
337
333
337
344
333
303
345
395
315
329
335
342
335
331
339
346
341
332
339
346
343
336
338
338
333
323
327
334
333
324
326
332
333
321
325
331
333
321
323
330
331
321
326
329
331
320
318
308
320
Áªj¤ü324
318
328
332
321
321
329
332
6
321
327
323
316
322
331
325
316
323
329
327
317
322
329
327
319
324
335
332
320
322
328
303
337
359
308
330
319
319
327
333
323
323
332
334
328
327
337
342
330
321
326
331
323
318
326
333
328
320
326
334
328
320
327
334
331
323
330
341
338
326
330
337
324
311
386
320
335
326
329
336
339
327
331
339
341
332
333
344
349
335
328
332
335
325
322
330
336
328
323
330
334
326
319
327
332
327
317
323
331
328
322
326
328
326
315
309
311
386
301
319
328
330
318
322
331
335
323
324
332
336
326
328
335
331
317
314
323
327
318
315
323
330
320
316
323
329
321
317
323
329
325
319
327
337
331
320
327
334
308
333
365
314
333
321
325
333
335
324
329
337
339
328
333
343
347
330
327
332
335
323
321
328
332
323
320
328
335
324
321
329
335
326
321
328
337
334
325
330
336
332
312
320
381
312
320
326
334
332
322
328
338
338
326
330
341
343
333
332
333
332
319
319
327
331
320
318
327
333
323
322
328
334
325
321
329
336
329
324
333
340
330
323
328
307
371
340
325
338
338
330
336
343
344
333
343
348
354
345
351
363
360
345
348
357
360
352
354
364
368
357
356
365
369
358
356
366
369
359
357
366
371
360
352
360
354
341
408
338
360
352
345
351
357
352
343
350
355
350
340
345
353
350
331
333
339
337
325
327
335
336
324
322
331
333
319
319
327
332
320
322
329
331
317
312
313
312
368
300
320
330
324
315
322
327
321
313
321
330
328
318
328
333
325
311
316
322
322
310
314
321
322
307
310
317
320
307
310
321
324
315
312
320
325
312
280
354
349
295
309
317
322
314
309
319
327
320
315
325
334
331
323
328
330
323
312
320
327
325
313
320
328
325
313
316
324
323
310
314
326
325
310
313
320
298
313
371
297
327
313
314
324
329
320
320
330
334
323
320
328
335
324
311
317
321
313
304
311
319
313
304
312
319
314
304
310
317
317
309
312
317
318
303
279
331
360
280
307
315
318
306
309
318
323
312
311
322
328
318
317
322
323
311
306
315
322
313
307
316
323
316
309
317
324
319
313
323
329
321
312
317
299
360
333
303
326
327
314
319
329
331
320
324
333
336
325
328
336
332
317
314
323
327
317
315
324
330
318
313
323
328
320
316
324
334
324
314
322
327
293
346
351
313
323
312
318
326
324
313
322
330
331
320
326
336
336
317
317
322
325
314
313
322
326
315
313
323
326
315
313
321
326
317
317
324
327
317
311
292
339
368
291
320
325
318
311
318
327
322
313
320
329
328
319
326
330
322
308
312
322
322
310
314
322
322
310
311
319
323
309
311
321
326
317
313
318
324
310
281
354
344
299
309
318
324
316
310
320
330
322
316
325
334
332
323
324
327
322
311
316
324
322
309
318
325
326
314
320
328
330
319
324
336
337
321
322
331
306
351
351
310
333
320
318
326
331
321
316
325
331
323
318
328
336
323
309
316
322
317
307
315
322
320
309
317
324
322
310
315
323
323
310
316
325
328
313
315
323
324
281
351
346
314
314
315
324
330
319
317
328
332
320
315
324
333
322
311
315
319
309
302
311
318
312
304
312
321
316
305
312
321
319
307
313
323
322
313
316
320
322
308
284
347
357
293
315
323
326
314
315
326
331
320
319
329
337
327
324
327
328
317
311
321
328
320
313
323
331
324
314
322
331
327
317
324
332
329
316
323
333
332
315
319
327
317
293
376
316
330
316
318
325
328
315
318
325
330
317
317
327
336
322
313
318
322
311
305
314
321
312
305
313
318
313
304
312
320
312
323
333
342
339
330
340
347
343
328
335
336
315
383
323
336
340
327
330
341
344
334
335
343
348
335
336
348
352
333
327
336
342
332
328
336
342
334
327
337
345
337
329
337
343
337
328
336
345
344
333
340
348
344
328
308
391
348
320
334
342
343
332
334
345
349
337
339
349
355
345
344
350
350
337
333
344
350
339
335
344
350
340
333
341
346
336
327
335
341
336
327
335
346
340
327
332
340
307
340
378
319
339
324
329
337
338
326
329
340
342
330
332
344
351
335
329
336
339
325
324
332
338
328
322
333
339
328
322
330
338
330
321
331
339
336
325
332
337
332
310
311
395
317
322
329
336
336
325
330
339
343
328
333
343
348
336
336
339
339
324
323
334
340
329
326
338
341
331
327
337
343
334
328
339
346
341
333
339
345
338
314
319
402
319
325
333
343
339
326
332
342
342
330
334
343
346
334
335
336
334
320
321
330
334
320
321
330
333
321
317
328
332
320
317
325
332
324
320
328
332
323
312
292
371
343
303
321
328
324
314
322
332
330
319
326
337
339
327
334
338
333
317
319
328
331
317
318
329
333
320
319
330
334
322
319
329
337
328
322
331
338
328
297
374
362
325
329
339
347
342
332
341
351
350
339
346
354
352
339
340
343
340
327
331
340
341
328
332
341
342
328
329
338
341
329
327
339
349
333
328
337
341
302
332
391
320
331
322
330
338
332
323
332
341
336
327
335
344
342
328
328
334
332
320
327
337
339
326
331
339
339
325
327
333
334
319
318
330
330
313
310
318
300
310
363
296
323
310
308
317
323
315
311
326
334
327
320
332
341
333
317
322
330
324
311
323
333
330
314
325
335
334
322
326
336
338
325
328
336
336
323
324
311
361
363
305
338
342
329
330
340
345
336
334
344
354
341
338
349
357
347
340
351
361
351
341
348
356
351
339
345
353
350
337
344
354
355
345
347
351
351
335
311
337
417
310
334
340
346
332
331
338
346
334
329
340
347
337
336
342
342
329
320
329
334
325
316
324
331
323
312
322
331
325
312
320
332
329
317
320
329
322
286
375
322
323
319
322
332
335
323
326
338
342
330
330
343
350
336
329
335
338
327
323
334
340
331
325
334
341
333
326
338
344
338
330
343
348
342
329
335
321
345
384
312
344
342
328
334
344
345
333
338
346
348
337
340
349
349
331
330
338
343
329
326
337
342
330
326
336
348
340
333
337
344
336
330
339
345
337
327
326
315
396
322
331
340
336
325
333
348
347
336
341
350
354
341
348
350
351
335
334
344
349
335
334
346
350
338
335
347
352
342
337
346
354
344
340
353
359
348
341
346
326
358
392
327
358
351
338
345
352
351
342
347
358
358
346
353
366
362
344
344
353
356
343
347
355
360
346
345
356
360
350
347
356
363
351
347
358
366
355
347
355
363
339
335
410
345
354
344
353
360
357
345
357
369
366
356
359
368
368
353
351
360
360
346
346
352
353
342
349
357
355
341
340
355
356
340
340
349
357
346
343
348
352
342
331
312
400
346
324
340
345
338
328
337
345
341
329
337
346
345
334
341
343
335
320
326
334
336
320
324
334
336
321
322
330
334
320
320
331
335
324
322
332
335
322
317
323
297
365
330
315
330
324
314
325
332
327
318
326
336
332
322
332
340
332
314
320
328
326
314
319
329
329
316
320
329
332
317
320
328
332
318
319
329
337
323
320
330
334
301
312
386
311
324
318
328
334
325
318
329
337
332
324
334
344
340
326
327
332
328
316
325
332
331
318
325
333
333
319
323
333
334
322
324
334
338
328
328
335
339
326
304
335
389
304
325
333
340
328
323
335
343
335
327
339
348
342
335
340
340
333
320
329
339
336
324
330
338
336
324
330
338
339
325
329
338
339
327
333
341
342
326
327
311
349
378
305
335
339
326
322
333
339
332
327
337
344
336
331
341
347
334
322
330
338
332
320
329
337
335
322
328
336
333
321
326
333
332
321
327
338
339
321
324
332
303
352
355
319
336
321
321
331
335
326
322
332
338
330
327
336
346
333
319
324
333
325
317
326
335
329
319
327
334
331
319
324
334
331
320
326
338
336
319
324
332
305
338
365
313
334
318
321
332
336
324
325
334
338
327
326
338
346
330
321
327
332
324
317
327
334
326
318
326
335
329
320
328
335
331
321
331
338
333
322
326
308
365
349
311
337
336
325
329
338
342
330
333
343
349
339
340
351
350
334
330
341
346
335
333
342
349
337
332
341
349
340
334
344
351
350
338
345
352
347
317
343
411
329
338
345
355
353
343
347
358
360
347
352
364
367
355
351
355
355
341
339
349
353
339
337
347
351
338
334
344
350
339
334
344
352
341
331
339
345
309
350
375
324
334
321
330
339
337
326
334
342
340
329
338
349
350
331
329
335
336
322
325
336
336
322
322
332
335
322
321
332
337
324
322
332
340
327
319
327
336
313
306
382
314
326
314
324
332
327
317
327
336
333
322
331
342
339
321
321
329
331
317
319
328
327
313
317
328
331
317
320
327
330
320
321
332
336
322
318
325
332
318
294
373
339
313
319
330
339
331
321
331
339
335
326
334
345
340
328
331
336
333
317
324
332
331
318
323
334
333
317
321
331
333
320
321
333
335
324
325
336
338
321
320
330
309
361
338
320
337
327
325
334
341
335
329
338
347
344
336
346
355
345
326
332
340
337
326
333
340
337
323
329
335
335
318
320
330
331
316
316
324
326
313
317
324
326
313
310
301
317
369
286
318
322
313
309
317
324
315
309
317
325
320
314
324
331
319
304
309
316
311
299
306
316
315
302
309
316
316
304
311
320
322
308
312
321
325
314
316
325
325
313
310
294
369
323
304
324
329
319
317
327
335
326
321
332
340
335
328
338
342
328
317
324
334
329
319
326
333
330
317
323
334
330
315
320
328
329
318
322
332
334
324
322
328
332
314
289
364
349
301
310
321
328
320
318
330
338
328
324
337
347
342
336
340
343
332
323
330
339
335
324
332
341
336
323
328
336
333
319
324
330
329
315
318
327
331
316
317
323
325
300
291
379
308
307
306
316
322
308
307
317
324
313
308
320
328
319
313
316
319
309
299
308
317
311
300
308
317
313
301
307
316
313
301
309
318
315
301
308
321
322
307
310
320
311
288
364
305
321
309
311
320
326
314
313
326
331
320
318
330
338
327
314
319
324
315
308
319
327
319
311
319
327
322
311
318
325
322
311
319
330
328
318
322
326
327
312
292
356
357
296
316
326
331
317
319
329
334
323
322
334
341
331
331
336
336
322
315
326
332
323
316
325
334
325
317
324
331
328
317
325
334
331
323
328
333
330
317
296
360
365
301
321
329
330
317
321
330
334
321
322
334
347
338
339
344
344
327
323
333
338
327
320
331
337
326
321
329
335
327
318
327
334
332
321
326
333
329
295
330
382
306
317
321
330
329
317
322
332
334
319
325
337
340
329
326
330
330
314
314
325
329
316
314
325
329
317
313
323
329
317
313
324
333
322
312
320
327
289
346
345
315
322
311
320
328
325
313
320
330
328
315
324
334
334
314
314
321
322
308
312
321
324
310
311
322
324
310
309
319
326
312
311
318
322
311
303
283
357
336
291
314
321
312
304
315
323
318
308
318
328
326
320
329
331
324
310
315
326
327
311
318
327
327
313
316
326
327
312
314
326
333
318
318
327
331
306
300
383
313
319
315
325
331
321
316
327
336
328
320
331
341
336
325
327
331
324
314
323
331
328
316
323
334
332
319
325
333
334
321
328
337
337
322
324
328
314
371
318
327
335
324
322
333
338
328
326
337
343
334
330
343
349
333
322
328
336
331
321
330
339
333
323
329
337
333
322
328
336
336
325
332
340
336
323
325
307
383
338
317
335
337
324
325
336
340
328
327
338
344
333
332
342
342
327
320
329
337
328
321
331
338
329
321
329
337
331
320
330
337
333
322
334
339
334
320
326
303
353
359
305
333
333
319
323
332
336
322
325
336
340
328
329
342
342
322
317
328
332
321
317
327
334
323
317
327
333
325
317
325
333
325
316
326
335
327
313
322
324
297
365
319
323
326
312
320
329
332
318
322
333
333
320
325
337
340
319
316
324
326
313
312
320
327
315
312
321
328
318
311
322
327
317
313
326
333
322
310
319
317
309
362
302
326
324
312
320
329
328
316
323
334
332
321
329
340
338
317
318
325
327
314
316
328
331
317
316
327
331
319
315
328
333
321
319
329
338
325
315
326
332
296
340
365
316
328
318
325
334
329
317
326
335
333
320
328
340
341
323
323
331
329
315
319
329
330
317
319
329
332
318
318
328
332
320
318
327
333
325
318
326
333
322
290
329
386
301
316
323
331
323
312
323
332
328
317
326
336
334
325
329
331
328
313
320
328
327
313
317
328
328
315
318
326
328
313
315
325
328
314
314
329
330
316
313
324
304
319
363
300
330
318
311
321
328
320
314
324
331
325
318
327
339
332
313
317
324
321
308
314
323
324
310
315
323
325
309
314
325
326
311
313
325
332
316
315
324
325
302
295
373
311
312
309
320
328
317
312
323
331
322
316
327
337
330
321
322
327
319
307
318
326
321
311
319
327
324
312
318
327
326
311
316
326
329
317
319
327
328
313
284
356
357
300
315
324
328
317
313
324
331
320
315
327
336
327
322
326
329
318
308
319
326
320
308
318
327
322
312
320
327
324
311
316
325
324
314
317
324
322
308
302
304
386
297
311
322
326
311
312
323
329
316
314
324
330
321
320
327
328
313
305
315
322
313
305
315
323
315
307
316
323
319
306
315
324
319
308
320
326
322
309
315
302
327
359
293
324
324
311
314
324
327
315
316
327
332
319
322
334
335
316
310
320
326
315
309
321
329
318
311
321
330
320
311
321
330
324
314
325
333
325
312
316
303
371
315
310
327
327
313
318
327
329
317
321
332
333
323
325
335
332
313
312
322
326
312
312
322
327
315
311
322
329
316
312
322
328
318
311
326
331
321
315
324
305
348
353
307
333
325
315
324
333
330
319
326
335
334
320
328
338
334
314
315
324
326
310
313
323
326
312
309
321
324
310
309
318
323
310
306
321
326
314
306
316
318
289
355
312
317
314
305
314
348
344
335
344
353
349
340
348
359
354
335
336
343
341
326
332
341
342
328
332
342
344
329
333
341
344
329
330
343
344
328
326
334
317
352
364
315
344
333
328
339
346
336
330
341
350
343
334
343
352
341
323
329
338
334
320
328
338
335
321
327
337
336
322
326
336
336
320
324
336
341
324
336
346
350
326
317
404
338
335
333
345
348
337
333
344
352
343
336
349
357
350
340
344
348
338
327
336
344
338
325
335
343
340
327
334
342
340
326
332
339
341
326
335
343
342
326
328
322
334
377
306
336
339
327
326
337
343
331
329
341
348
337
335
346
349
334
324
333
340
332
324
334
341
335
322
333
342
337
324
331
339
337
324
333
343
346
329
333
340
341
300
344
386
321
327
329
341
343
330
330
342
348
335
334
348
355
344
334
340
342
330
324
333
342
330
324
335
343
335
326
334
343
336
324
334
342
338
326
334
345
345
328
332
340
340
298
342
387
320
327
329
338
341
328
330
341
345
332
332
344
350
339
335
338
340
326
321
333
340
329
323
333
340
331
323
333
341
332
321
330
338
333
322
329
340
340
326
331
339
336
310
315
393
318
320
325
336
337
322
327
338
341
327
329
343
348
336
335
341
340
326
322
332
338
325
322
332
340
329
322
334
341
331
323
332
341
333
325
334
342
340
326
335
341
336
311
318
400
323
325
333
343
344
331
336
348
351
337
343
355
360
348
349
353
353
339
338
350
356
342
341
354
360
349
345
358
365
353
349
360
367
359
351
362
372
368
358
365
372
367
347
342
433
362
355
364
374
372
359
365
376
377
362
367
377
380
369
370
375
371
354
353
363
367
352
349
361
367
353
349
359
366
352
347
357
363
352
344
355
361
353
341
348
354
346
305
364
387
325
330
336
346
344
330
337
347
344
329
336
346
347
334
334
337
334
317
320
329
330
315
315
325
331
315
313
324
328
313
308
319
324
313
311
320
325
311
303
308
296
361
300
302
318
310
300
308
317
314
302
311
320
318
308
318
326
319
299
303
311
312
297
302
314
317
303
305
315
318
302
304
316
320
305
306
319
326
310
306
315
322
298
288
375
308
312
305
316
324
316
306
318
329
320
311
322
332
330
318
320
325
320
305
314
324
321
308
314
325
326
310
315
325
326
311
314
326
330
315
317
327
329
316
308
297
382
318
309
323
331
320
314
327
332
325
318
328
338
332
324
334
338
325
311
321
329
324
312
319
329
326
312
320
329
327
313
319
329
330
317
323
331
332
315
317
305
342
359
294
328
330
317
318
330
337
324
322
333
341
331
327
340
343
326
316
325
332
325
315
325
335
329
316
327
334
332
320
327
337
336
324
333
339
336
320
326
313
338
375
302
335
336
322
323
336
339
326
327
339
343
332
331
344
348
327
320
329
335
325
318
329
336
328
319
328
337
329
319
329
337
329
320
332
340
333
320
327
317
320
379
305
336
332
320
324
335
336
322
327
336
341
327
332
344
346
325
322
332
335
321
319
331
337
324
320
329
336
322
314
326
333
323
316
328
336
326
313
322
325
297
363
323
325
326
313
321
332
331
317
325
335
337
324
331
345
349
328
328
338
343
330
333
345
350
339
340
353
361
350
350
363
371
362
360
377
385
375
369
381
371
396
424
372
404
398
392
403
416
415
408
421
435
441
441
454
466
462
441
446
452
450
434
438
447
447
430
429
437
434
414
412
419
421
404
402
408
408
391
384
383
373
438
361
375
380
368
354
363
369
356
344
350
350
337
326
338
350
341
323
328
336
332
318
323
331
330
313
316
326
325
309
313
322
324
308
312
318
317
301
299
284
320
345
268
299
301
286
280
291
295
284
276
286
293
283
276
287
288
273
257
265
272
266
252
260
270
264
251
259
268
265
249
256
267
267
255
260
266
269
256
241
281
316
237
261
272
277
263
264
276
283
271
271
285
293
284
282
290
293
280
273
286
295
289
281
292
302
295
286
296
306
302
292
302
314
309
294
304
310
287
344
316
310
316
302
307
319
322
307
314
325
330
318
321
336
339
321
317
326
332
319
316
328
335
325
319
330
337
326
320
330
339
332
325
335
341
334
322
304
359
381
304
330
338
336
323
331
341
340
326
332
342
345
332
339
347
342
326
327
337
343
329
330
341
345
333
330
342
347
335
330
341
349
338
331
340
346
334
297
362
383
318
326
334
342
337
324
334
344
340
327
336
348
347
334
335
339
336
319
325
335
335
320
324
334
337
322
324
335
336
323
323
334
342
326
320
332
335
301
330
372
316
325
317
329
337
328
319
333
340
334
325
336
346
342
325
328
334
331
318
325
334
331
317
324
334
334
318
324
332
333
319
323
335
340
323
321
332
332
295
369
340
326
322
319
330
336
323
319
331
338
329
323
335
346
338
322
327
333
327
314
324
334
327
314
322
332
329
314
323
331
330
316
322
332
333
320
324
333
331
318
316
299
369
342
305
326
330
316
316
326
333
322
317
331
338
327
322
335
336
321
313
321
330
322
312
321
332
325
314
322
331
326
313
321
330
326
311
317
328
330
318
320
328
329
313
298
316
385
292
315
324
328
315
316
326
331
319
316
327
333
323
323
331
333
318
310
318
326
317
308
318
328
319
309
320
326
321
308
318
327
324
309
318
328
330
313
318
325
325
294
311
375
306
311
314
324
328
313
314
329
333
318
317
331
339
327
322
326
329
317
311
323
329
319
312
324
331
322
312
323
332
325
314
322
330
326
313
325
335
330
314
322
330
299
350
348
319
332
315
319
330
332
316
320
332
336
321
324
339
345
325
316
327
331
317
315
327
332
321
315
327
334
325
316
328
336
328
318
328
335
331
319
331
338
332
319
324
305
378
332
317
336
333
319
325
335
337
323
327
339
342
327
330
343
341
320
347
359
362
346
343
353
359
346
342
353
357
346
340
351
356
347
337
350
357
353
340
347
355
348
308
359
396
326
331
336
347
344
329
337
346
347
330
336
348
350
336
334
338
338
319
321
333
337
322
320
332
337
322
318
329
336
322
316
329
338
329
321
329
336
326
312
303
382
332
309
328
338
333
320
329
339
338
325
334
345
346
334
339
344
339
321
327
339
342
325
326
339
341
326
325
336
342
326
324
335
342
334
328
337
342
330
312
315
400
317
319
329
337
330
319
329
339
334
321
331
342
341
330
336
340
334
317
323
334
336
319
325
335
335
319
322
335
338
322
323
336
341
327
324
333
337
322
289
373
362
315
320
332
339
329
321
335
344
334
324
336
346
341
331
336
340
332
318
326
336
333
318
328
337
336
322
327
338
337
322
326
338
344
327
327
338
340
301
340
382
320
327
325
337
342
329
326
339
346
335
329
343
354
345
330
336
343
333
323
334
344
336
324
334
342
338
323
330
339
336
324
333
342
338
322
327
313
374
343
312
338
342
326
329
341
345
332
331
343
350
339
335
347
348
329
322
334
340
331
322
334
343
332
322
333
341
334
322
334
343
342
324
330
341
337
297
349
385
320
324
327
338
339
325
328
342
346
329
333
348
353
339
334
340
343
329
326
338
344
330
326
335
342
331
323
335
343
337
329
342
355
344
330
339
351
326
332
403
334
354
337
346
355
355
339
347
360
359
345
351
363
369
349
344
354
357
341
341
352
358
343
340
350
355
342
336
348
354
341
335
346
354
343
330
341
348
311
353
369
328
339
323
334
343
339
324
333
344
340
326
333
345
346
322
323
330
329
315
315
328
329
315
314
324
328
314
312
324
327
313
310
325
332
317
310
322
323
299
359
315
320
317
307
318
328
322
311
323
333
329
319
328
339
336
313
317
326
325
311
316
326
326
312
314
325
328
313
315
326
329
315
312
325
331
320
314
322
329
317
292
317
384
296
310
320
328
320
310
321
332
326
314
324
336
336
322
326
330
325
308
316
326
325
309
316
327
328
311
314
324
328
312
313
325
329
314
315
326
332
318
320
329
332
319
312
296
356
361
296
325
330
322
314
324
334
327
317
326
337
333
320
332
338
328
310
316
325
325
310
315
325
327
310
315
326
326
311
315
326
328
313
313
324
329
313
313
327
333
317
311
323
326
290
354
328
318
317
309
321
330
322
311
322
331
327
315
326
339
334
316
318
325
324
309
316
326
325
310
314
327
328
311
314
325
327
312
314
324
329
314
314
328
336
320
313
325
319
311
363
304
331
321
314
325
335
328
318
329
337
333
321
331
343
338
318
322
330
329
314
321
332
332
317
320
330
334
317
321
332
335
319
320
332
335
320
320
335
337
323
317
327
310
324
367
303
335
323
314
327
334
327
316
325
335
329
318
330
341
335
313
319
326
325
311
317
327
328
313
318
326
327
311
313
325
327
312
313
324
329
315
315
326
329
313
309
314
299
364
308
313
326
316
307
319
327
320
311
321
331
326
315
328
336
327
307
312
323
320
305
311
322
321
307
312
323
323
307
311
322
324
307
309
323
326
310
306
318
314
296
354
303
320
312
306
318
325
315
307
318
328
320
311
323
334
327
333
339
351
346
335
345
355
353
340
349
360
358
343
348
360
360
346
352
363
364
347
347
352
343
402
341
354
363
350
348
360
367
355
352
365
372
363
357
371
378
361
344
354
362
355
343
353
361
356
342
351
360
358
343
351
360
356
339
345
355
354
334
337
347
320
364
370
332
351
334
334
344
350
338
335
348
354
345
340
354
365
350
336
344
351
343
333
343
353
348
334
342
351
348
332
340
349
346
331
337
349
353
335
336
346
347
302
351
388
330
333
332
344
349
333
332
345
349
338
334
347
355
345
334
340
345
334
324
335
343
334
324
334
342
335
322
332
342
339
324
332
342
340
328
337
346
345
327
332
331
327
381
313
339
343
326
328
340
345
330
328
341
347
335
333
345
353
334
322
332
340
331
322
332
342
333
321
332
341
337
323
332
342
338
323
332
347
343
324
331
341
325
323
379
320
340
325
329
338
342
328
329
342
347
335
335
348
355
339
327
338
343
331
324
336
344
335
328
337
346
339
325
346
357
348
331
338
349
347
335
340
348
348
328
308
388
357
321
333
344
346
330
332
345
348
333
331
345
351
339
339
345
345
331
325
337
345
334
324
337
345
335
325
335
342
336
325
335
344
339
324
336
347
341
323
330
339
322
310
384
321
338
321
326
337
340
324
329
341
345
331
330
344
351
336
326
335
339
328
321
332
339
329
321
332
342
334
321
331
339
332
319
330
338
333
320
329
341
336
318
325
334
306
341
359
316
335
317
322
335
337
322
324
336
339
325
325
337
345
327
318
327
333
321
314
326
333
324
314
325
333
325
314
324
334
327
316
325
334
330
316
326
334
330
316
320
306
363
339
305
332
332
318
322
334
337
323
324
336
342
328
329
342
341
324
317
328
335
322
316
328
336
326
317
328
335
326
315
324
333
326
314
324
332
331
317
328
337
334
317
320
303
372
333
311
332
331
316
318
331
335
321
322
332
338
325
324
338
339
320
314
325
331
320
312
325
332
323
313
323
332
323
312
322
330
326
312
320
329
326
313
324
331
328
311
316
301
337
358
294
327
327
311
313
325
328
314
315
328
333
320
319
332
335
316
309
319
326
315
308
318
327
318
310
320
329
322
309
320
326
323
310
319
329
325
312
321
330
328
312
317
319
307
365
304
324
327
313
315
327
333
319
320
333
337
326
325
341
348
330
320
331
337
328
320
332
341
334
325
337
345
340
329
339
350
346
335
343
354
351
341
347
355
354
340
324
360
404
320
346
357
360
346
348
361
366
352
350
364
370
357
356
366
364
348
340
350
355
344
335
345
354
343
330
342
349
342
328
336
345
340
326
333
342
342
324
328
336
334
298
320
386
313
318
316
327
331
314
314
327
332
316
315
327
332
321
314
319
321
308
301
312
321
309
300
312
318
310
298
308
316
310
295
304
313
310
296
305
318
314
297
302
308
278
325
325
293
309
291
293
306
308
291
294
308
313
299
298
312
319
303
292
300
306
294
288
300
308
300
291
302
311
302
291
300
310
305
292
301
310
308
297
302
311
310
292
271
333
340
275
299
310
311
297
298
311
315
301
301
315
323
312
309
317
318
302
295
307
317
305
297
311
343
336
330
344
355
345
336
346
355
351
339
350
359
351
339
344
328
394
358
331
358
355
339
344
357
359
346
347
360
366
351
352
368
366
346
341
353
359
345
340
352
358
347
338
351
359
350
339
349
357
351
338
350
361
355
340
346
356
343
316
400
344
352
338
342
354
355
340
344
357
360
344
346
359
364
350
342
349
352
337
333
345
350
340
334
345
353
341
334
346
353
344
333
343
351
347
337
344
352
347
332
328
328
404
317
335
345
346
332
335
348
351
338
338
351
355
341
343
356
353
336
331
342
350
337
331
343
351
339
330
341
349
339
330
339
348
341
329
340
349
345
330
337
346
343
302
356
382
326
330
332
344
344
330
334
345
349
333
335
349
354
342
336
342
343
329
324
336
342
331
323
335
343
333
323
332
339
333
321
331
339
336
329
335
343
338
323
316
340
390
306
333
342
344
329
333
345
348
335
338
350
355
343
344
354
351
334
330
341
347
334
328
340
348
338
329
342
349
340
331
341
349
344
334
346
352
344
331
338
319
368
367
320
346
344
330
336
346
348
334
339
348
352
339
342
355
354
334
329
339
344
330
328
339
345
333
325
336
343
332
325
336
343
335
325
335
347
340
324
332
341
311
339
375
320
338
321
329
339
339
325
330
341
343
329
334
345
350
332
325
335
338
325
323
335
339
328
323
333
338
327
320
331
337
329
319
330
340
334
325
333
340
333
319
301
353
370
300
326
335
333
319
325
336
339
324
328
340
343
331
334
342
338
323
319
332
337
323
320
332
339
326
319
330
338
326
318
327
336
329
320
333
340
334
320
329
318
349
362
309
341
338
322
328
339
340
326
332
343
346
332
337
351
350
328
324
336
339
326
325
335
342
328
323
336
341
331
323
334
341
332
323
335
344
339
324
331
341
332
294
373
351
327
320
328
337
336
321
326
339
339
326
331
345
349
334
329
337
338
323
322
335
338
324
320
333
338
325
320
332
337
325
317
329
338
330
321
333
341
335
320
329
335
309
372
330
333
336
320
324
335
334
322
328
338
338
323
328
342
347
327
320
328
332
317
315
326
330
319
314
326
331
322
314
326
333
324
315
326
336
330
322
327
334
330
316
300
360
359
299
323
333
333
318
322
335
338
321
326
339
343
331
334
341
339
322
318
330
335
321
316
329
336
326
319
330
337
328
319
329
337
333
322
334
341
335
322
328
313
377
331
317
337
336
321
328
340
340
327
331
343
347
332
336
347
345
325
321
333
336
322
320
332
336
324
319
331
337
328
320
330
338
329
318
332
344
335
320
328
336
311
316
381
314
334
317
324
335
333
319
324
337
338
323
327
341
345
329
321
329
331
317
316
327
334
321
316
328
333
322
314
327
332
322
313
325
331
329
319
329
336
329
315
309
319
389
297
324
333
333
318
323
334
335
320
324
336
340
326
330
341
336
318
316
328
332
319
315
326
332
320
312
325
332
320
312
323
333
325
313
324
334
330
314
321
330
324
285
367
331
322
311
319
328
327
315
320
332
333
318
323
334
340
326
320
326
328
313
310
323
329
317
312
324
332
320
312
324
332
321
311
323
333
328
316
324
331
328
309
296
371
336
301
320
330
331
315
320
333
335
318
322
335
340
326
326
332
330
313
310
322
328
314
310
323
328
316
309
321
329
319
310
327
337
329
319
333
339
332
318
326
310
348
363
308
337
335
321
325
337
338
323
329
340
344
329
332
343
345
324
320
332
338
324
321
332
339
326
320
332
340
330
321
333
341
331
320
331
343
336
320
328
338
320
302
385
321
335
317
326
336
336
320
328
339
340
323
328
341
346
331
324
332
333
319
316
329
335
322
317
329
334
324
316
327
335
327
316
327
336
330
320
328
335
328
315
305
327
383
292
322
330
330
315
320
331
332
318
322
334
340
326
328
338
336
318
315
327
332
317
314
325
332
320
312
325
332
322
313
325
334
325
314
329
336
329
315
325
317
331
364
302
332
331
316
323
333
334
320
324
337
340
325
329
342
345
324
320
332
335
322
317
329
335
323
317
328
335
325
315
327
334
326
317
332
339
330
316
323
316
326
373
303
335
331
316
323
332
333
320
325
338
339
325
329
342
343
320
318
330
332
319
316
328
335
322
315
328
333
324
315
326
333
323
316
329
338
330
315
326
331
300
362
333
326
330
316
322
333
332
317
324
336
337
322
327
339
342
323
319
328
329
316
315
328
333
318
315
326
333
321
314
325
332
322
312
325
337
325
312
320
328
304
309
376
308
328
311
320
331
331
316
322
334
333
318
324
338
341
323
320
327
330
314
313
326
330
316
312
325
331
319
314
327
332
322
313
328
339
326
314
324
333
306
322
367
311
329
314
322
332
332
318
325
336
336
322
328
341
344
326
321
331
332
316
315
328
332
317
314
326
331
317
313
324
332
320
314
327
338
328
316
327
333
303
319
376
310
328
313
321
332
330
315
323
334
334
319
328
341
344
325
321
330
332
316
319
329
333
317
316
329
332
318
315
326
332
320
314
327
334
327
314
326
333
324
302
306
393
313
312
322
331
328
316
323
332
332
319
325
336
339
325
329
335
331
315
316
328
332
315
314
327
331
318
316
329
334
320
315
326
333
322
313
326
337
326
313
322
331
315
289
377
318
324
310
319
329
327
311
321
332
331
316
322
335
338
324
318
327
329
313
313
325
328
314
312
325
329
316
311
324
331
318
310
323
328
320
311
322
334
323
309
319
328
303
320
361
308
327
312
320
331
330
315
324
336
336
321
325
340
345
325
322
330
334
317
316
328
332
319
316
329
334
322
317
329
335
324
315
327
335
326
314
328
339
331
318
327
336
317
303
382
317
330
314
321
330
330
314
320
334
334
321
324
338
342
329
323
330
334
319
317
329
335
321
316
327
336
324
317
328
335
326
315
326
333
326
315
325
334
330
320
325
334
328
314
294
337
377
291
319
327
329
314
317
329
332
317
320
331
337
324
325
338
335
318
312
325
330
319
312
324
332
323
313
326
334
325
314
324
331
325
311
321
330
324
312
321
332
328
312
319
322
303
359
316
322
328
313
315
328
332
317
319
330
333
321
319
336
341
323
312
321
327
314
308
320
327
320
311
322
331
322
310
320
329
325
313
321
330
330
316
324
333
330
313
314
306
378
314
311
330
333
316
317
331
337
323
322
335
340
329
328
342
342
324
314
326
334
324
315
324
332
324
314
325
331
326
312
321
329
327
314
322
335
330
313
319
328
307
311
368
304
327
310
312
323
327
313
313
326
330
317
317
331
339
324
312
320
326
316
305
320
328
318
309
319
329
322
309
319
327
323
310
317
328
329
312
318
327
326
291
314
383
306
314
314
328
328
313
314
328
333
318
317
332
339
328
322
327
329
314
307
320
328
318
308
320
328
320
310
321
329
325
310
320
329
325
315
321
329
328
311
293
349
361
292
315
324
328
313
313
327
331
318
318
331
336
325
324
331
332
316
309
320
326
316
307
320
327
320
310
320
329
323
309
319
329
329
314
319
326
318
288
310
374
302
306
309
321
323
309
312
325
329
314
316
329
337
325
321
326
329
314
308
321
329
317
309
321
328
319
309
322
331
323
311
321
331
328
313
321
328
326
307
292
377
333
304
316
326
326
310
315
328
331
317
319
331
338
327
325
332
331
317
314
326
332
321
314
325
333
324
313
325
332
322
311
322
330
324
310
323
332
325
310
316
297
354
340
300
323
323
307
312
324
325
312
314
326
330
316
318
330
333
313
307
320
326
314
308
319
326
315
306
319
326
318
309
318
326
319
306
317
329
327
309
316
326
322
283
334
360
304
307
311
323
325
308
313
325
328
314
316
330
335
321
315
322
324
310
305
317
324
313
306
318
326
318
306
318
325
318
306
317
326
323
310
321
329
324
309
315
300
364
328
301
325
326
310
313
325
328
314
317
328
334
320
322
335
336
316
309
321
327
315
308
319
327
318
308
320
327
320
310
321
331
325
311
321
329
325
312
322
331
328
312
318
311
321
368
296
327
329
314
316
328
332
316
318
330
336
323
320
336
342
326
314
324
333
320
312
325
332
324
312
322
332
326
313
322
330
327
313
322
331
329
314
320
334
331
313
315
326
307
313
370
306
330
311
309
320
325
311
310
323
328
320
315
330
340
330
316
325
330
321
311
323
331
324
312
321
330
325
310
318
326
325
308
314
324
323
308
314
327
326
308
310
321
304
315
356
300
327
310
309
319
327
313
309
322
328
318
312
327
337
326
309
316
324
316
304
315
323
318
306
315
325
321
306
314
324
322
308
313
325
328
314
316
326
327
312
300
313
382
295
309
324
329
316
312
325
332
321
314
327
336
328
320
330
334
323
309
319
327
322
308
318
329
324
309
317
326
326
309
316
326
325
309
315
327
332
311
311
322
324
281
335
355
310
311
309
320
326
314
308
323
330
320
311
325
336
329
314
320
327
318
306
316
325
320
307
315
323
321
306
312
322
322
305
310
320
324
309
311
322
323
308
301
291
373
312
300
314
321
309
303
316
326
314
306
317
327
320
312
324
329
318
302
311
320
315
301
309
320
317
301
310
321
320
303
308
320
320
306
311
323
325
306
306
314
297
354
302
307
321
306
302
316
323
313
305
320
329
319
311
322
333
321
303
312
320
316
302
311
320
318
303
310
322
321
304
310
321
323
310
313
323
324
308
304
299
376
305
301
318
326
311
307
320
328
316
308
322
331
322
315
326
328
316
303
314
322
317
302
313
322
318
303
309
320
318
301
309
322
323
308
309
320
320
304
279
336
365
288
305
317
321
308
305
317
323
312
306
321
328
318
311
320
321
309
297
306
318
310
296
306
315
310
295
303
315
314
298
304
314
317
303
304
314
320
301
277
365
331
300
305
315
321
309
305
317
325
313
308
320
329
321
314
322
323
313
300
312
322
314
301
311
320
316
299
307
337
337
324
333
344
349
331
334
346
346
310
337
391
324
330
329
342
347
333
330
346
353
341
335
348
358
349
337
342
345
335
325
336
345
339
327
337
346
342
326
336
343
342
328
337
347
345
328
331
331
337
382
310
342
346
329
328
342
348
333
332
345
350
341
336
350
354
335
323
334
342
334
321
333
340
333
321
329
338
335
320
328
337
336
321
328
343
340
321
325
336
311
342
365
317
338
323
322
335
340
325
324
337
343
333
327
342
351
336
322
331
338
330
319
330
338
334
321
330
338
334
320
328
338
337
321
327
339
338
326
327
337
337
320
294
367
367
309
321
332
339
323
320
333
341
327
321
336
342
334
326
335
336
326
316
326
334
327
313
324
335
330
315
323
334
331
315
323
333
334
317
321
334
336
322
323
333
336
312
294
381
329
317
316
329
333
321
315
329
339
327
319
334
342
334
326
331
334
325
311
321
330
327
313
322
332
328
313
321
332
332
315
319
330
332
318
320
336
337
318
318
330
314
331
358
308
336
323
316
329
337
326
319
332
340
333
324
337
347
338
320
326
335
330
315
326
335
332
318
324
336
335
317
323
333
335
318
320
333
337
321
322
335
339
321
316
324
309
370
316
322
335
322
314
326
335
327
317
329
339
335
322
334
346
335
315
321
330
329
312
320
331
329
314
319
329
333
318
318
331
333
316
313
324
328
314
314
325
328
315
308
304
321
374
290
322
328
321
310
322
332
326
312
320
331
329
316
327
337
330
311
317
328
329
313
317
327
329
313
315
326
331
315
313
324
328
314
311
324
331
318
315
325
331
322
312
303
341
368
292
325
332
328
313
324
335
330
316
325
335
336
322
332
341
336
316
319
329
331
316
317
330
334
319
317
330
334
321
316
327
334
321
316
330
339
330
318
329
338
318
305
380
319
327
312
326
333
332
316
325
338
336
322
329
341
343
328
326
333
335
319
318
330
333
319
317
328
333
320
316
329
336
325
317
327
334
324
316
330
337
327
317
327
312
338
365
305
335
330
315
321
332
331
318
323
334
336
320
324
338
341
320
314
325
330
314
311
323
329
318
312
323
329
320
311
321
330
320
311
321
331
328
312
321
330
326
290
315
383
305
312
316
328
329
313
316
330
333
316
321
333
338
326
325
331
332
316
310
324
331
317
310
323
328
317
309
321
329
320
310
319
328
323
313
321
329
324
308
299
322
376
289
315
325
326
310
316
327
329
316
316
330
335
322
322
334
333
317
309
323
330
316
311
322
330
320
310
321
331
322
311
320
331
330
314
321
330
327
289
332
373
306
313
316
326
329
313
317
330
335
320
323
336
342
328
322
329
332
316
311
325
332
320
312
324
334
323
312
323
331
325
310
322
335
330
312
318
330
324
284
369
334
325
313
317
329
332
316
319
331
336
321
321
335
342
330
321
328
333
320
312
326
332
322
313
323
331
323
312
321
331
324
310
321
332
331
315
320
330
325
281
359
345
320
312
315
328
329
314
316
329
334
320
319
333
342
330
320
327
331
318
310
323
330
322
310
323
331
326
312
323
332
326
313
321
330
329
317
320
328
328
311
292
332
380
291
318
327
332
317
316
328
336
322
318
329
337
326
320
331
332
318
309
320
329
321
310
320
329
324
312
320
330
325
310
317
327
327
312
320
331
329
313
311
304
373
314
303
324
330
315
314
327
333
321
317
331
340
330
324
337
338
324
311
321
331
323
310
320
331
325
310
320
329
326
312
317
329
329
315
322
329
330
312
315
302
344
361
293
326
329
315
311
326
331
321
316
327
334
324
319
332
339
324
311
321
329
323
310
318
328
325
309
317
327
326
310
314
325
327
312
316
327
334
315
314
326
329
288
331
369
314
317
312
324
330
320
311
324
333
324
315
328
339
334
320
323
328
322
307
316
327
323
308
313
325
326
309
314
324
325
311
312
325
327
312
316
326
328
312
309
305
324
366
288
321
328
317
308
323
330
323
313
323
336
333
319
332
340
331
311
318
327
326
309
315
327
328
310
314
326
328
313
313
326
330
316
314
328
332
316
310
322
306
347
337
304
331
321
311
325
333
327
316
327
336
333
321
331
342
336
313
317
326
325
310
313
326
328
312
314
324
328
312
312
327
329
315
310
324
331
320
313
323
330
319
282
343
368
302
310
320
329
324
311
322
332
331
317
324
338
338
323
326
331
329
310
312
325
326
311
312
325
329
313
312
325
329
315
309
322
329
318
310
324
333
320
308
319
322
295
359
317
324
322
308
317
329
325
310
319
329
328
314
320
334
337
314
312
322
325
308
308
322
328
312
309
320
327
314
306
320
325
315
305
317
326
319
310
318
327
321
306
290
341
360
286
313
321
321
305
314
326
327
312
316
329
331
317
319
330
330
310
306
319
323
309
303
314
322
310
301
316
322
312
302
314
322
317
307
317
325
320
305
302
317
371
286
311
324
323
308
314
326
330
313
316
330
333
320
319
331
329
312
306
319
324
312
303
316
325
316
305
316
325
317
304
316
324
320
306
319
328
321
304
313
297
350
338
295
323
322
308
311
323
328
314
314
328
332
320
318
334
336
316
308
319
328
316
307
320
328
318
307
319
327
320
306
316
328
322
309
319
329
323
307
314
320
299
359
313
320
325
309
309
322
324
312
311
324
330
317
314
329
335
318
307
317
324
314
305
317
324
317
303
314
323
317
304
313
324
321
305
313
326
326
309
311
322
319
276
348
335
314
308
308
321
326
312
310
324
330
316
310
324
335
327
311
318
325
315
304
314
323
316
303
314
324
320
305
311
322
319
304
312
323
328
308
310
321
323
284
330
353
305
312
308
322
329
314
311
325
333
322
315
329
339
330
317
323
328
321
307
316
327
322
306
317
325
322
306
315
325
323
307
312
327
327
308
308
322
303
317
358
302
328
311
308
321
328
316
312
324
333
321
313
328
339
326
308
315
323
318
303
314
324
320
305
313
323
323
306
313
324
324
309
314
329
328
310
310
318
298
356
318
315
328
313
306
320
326
315
307
320
329
322
312
325
335
322
305
313
323
319
304
312
322
320
304
310
322
322
306
309
323
325
307
310
325
326
310
306
320
309
303
364
297
328
313
307
320
328
317
308
322
330
322
313
325
337
332
309
316
324
320
304
313
323
324
308
314
325
326
308
310
323
324
307
309
323
329
312
309
323
326
288
338
343
311
316
306
319
328
318
309
321
331
323
312
324
334
333
312
316
324
321
304
310
321
322
306
311
322
324
308
307
321
324
308
307
323
331
315
308
320
326
290
322
361
306
317
305
318
326
319
306
321
330
325
313
323
336
335
315
317
323
320
305
309
322
321
306
310
322
326
308
308
321
325
311
306
320
328
313
311
324
329
316
307
307
312
374
289
315
326
319
307
317
327
324
310
318
330
330
316
326
337
331
308
311
323
324
309
310
323
327
311
310
323
327
313
308
321
328
313
307
320
328
319
312
321
327
320
305
294
330
373
285
317
326
323
307
314
327
328
312
317
329
332
316
321
331
328
308
306
318
321
307
303
317
324
310
303
316
323
311
302
314
323
315
305
317
325
320
308
318
325
321
305
301
309
373
289
308
321
323
308
311
325
328
313
314
328
333
319
320
332
330
311
304
315
324
309
302
314
323
313
300
313
321
314
301
311
320
316
302
313
326
323
305
311
319
297
331
338
304
323
306
310
322
326
311
310
325
330
316
315
329
337
320
308
317
324
312
305
316
324
316
306
317
326
322
306
315
325
322
306
314
325
327
308
312
322
322
284
318
368
305
310
309
321
326
311
309
324
330
318
313
327
336
327
316
322
325
316
304
315
325
317
303
315
325
320
305
313
323
321
306
311
323
324
309
312
324
323
308
301
297
377
298
303
319
322
308
302
316
324
312
305
319
329
321
312
325
328
316
299
312
323
317
302
311
320
318
300
309
319
319
302
309
321
322
304
308
324
326
308
305
319
308
298
358
296
323
308
302
316
324
314
305
317
326
319
310
321
333
327
305
311
319
315
300
307
318
317
300
305
318
319
301
306
318
320
303
302
318
326
307
304
315
321
294
294
363
301
308
299
311
322
314
303
316
325
320
307
319
330
329
312
313
321
318
301
308
320
319
304
307
320
321
304
305
318
321
305
305
319
326
309
301
314
320
283
333
342
306
312
301
312
321
314
302
315
324
321
307
319
330
328
309
310
319
317
300
307
318
319
302
304
317
320
304
304
334
342
328
325
340
349
338
331
341
349
333
295
386
354
328
323
334
343
337
324
335
347
343
328
338
351
349
336
336
342
339
320
323
335
336
321
321
334
338
323
320
333
339
325
319
332
339
329
324
335
340
331
321
312
335
390
296
330
336
332
317
326
336
336
319
325
337
338
323
332
344
338
316
317
329
333
316
315
329
334
320
315
329
336
323
316
328
336
326
316
331
342
331
316
327
334
303
349
347
321
334
316
324
337
336
320
325
339
341
324
329
343
347
326
319
331
333
318
316
329
335
323
316
332
338
326
315
327
336
329
317
329
339
335
320
327
337
332
293
365
352
322
318
323
333
335
317
321
336
339
323
324
338
346
331
323
331
334
321
315
326
335
321
314
326
334
325
315
327
334
328
311
322
332
327
314
325
334
329
312
317
303
366
341
307
331
333
316
319
331
336
320
320
333
339
326
324
339
343
325
314
327
334
323
314
326
336
327
314
324
334
326
312
321
332
329
314
322
334
333
320
321
330
332
313
288
371
345
309
316
330
334
320
316
331
339
324
320
334
342
332
325
335
336
325
312
321
332
324
312
324
332
328
312
320
331
328
313
320
333
333
316
320
332
335
323
320
331
333
317
295
329
382
296
314
328
335
323
316
327
337
326
317
329
338
335
324
334
339
329
313
321
331
328
312
319
330
329
312
317
330
332
316
318
331
334
318
317
332
338
325
320
329
337
319
292
374
340
318
316
326
336
329
318
329
340
334
320
332
343
343
327
331
335
333
315
321
331
333
316
320
333
335
320
320
332
338
321
318
331
338
324
317
332
343
329
319
329
336
324
287
369
347
320
315
325
336
330
316
326
337
336
320
327
341
342
328
328
335
335
316
316
330
333
319
316
330
335
321
316
330
336
322
314
326
336
326
316
330
342
333
318
326
334
322
290
374
327
327
313
320
331
333
315
322
334
336
322
323
339
345
330
325
331
334
318
313
327
333
320
314
326
333
322
312
325
334
328
314
324
334
326
312
322
336
330
312
321
328
303
351
328
320
332
313
316
329
331
317
319
333
337
324
322
339
347
329
316
328
334
322
312
324
332
324
313
324
333
327
311
323
333
329
312
322
335
334
315
320
330
328
285
347
357
313
314
315
329
334
320
317
331
336
323
320
335
344
333
322
329
333
323
313
324
335
328
312
324
335
328
313
321
332
329
313
320
333
332
319
322
332
334
316
297
329
390
296
316
328
334
319
315
330
337
324
318
332
341
330
322
334
338
325
312
325
334
328
315
323
334
329
314
323
332
331
313
319
332
334
318
323
334
334
315
315
298
366
345
302
327
334
321
315
328
337
325
317
330
338
331
320
335
340
328
311
321
330
326
311
319
329
327
309
316
328
328
310
315
328
330
313
317
329
332
314
313
308
335
361
289
324
330
318
309
325
335
325
314
326
336
331
321
332
339
328
309
318
330
327
311
318
330
330
312
318
331
331
314
317
329
333
319
318
331
334
318
295
335
383
299
315
326
335
324
314
328
340
332
322
334
345
343
330
337
339
333
314
323
334
333
315
321
333
333
315
317
330
332
314
313
327
332
316
318
329
332
317
310
296
361
348
297
324
332
324
314
326
336
330
316
326
336
332
318
330
337
331
310
316
328
329
314
317
331
333
315
316
327
331
313
311
323
328
315
314
328
333
317
311
316
306
377
306
320
331
322
310
323
332
327
314
323
335
332
318
327
339
334
312
315
327
328
311
315
329
331
314
313
325
333
318
315
329
333
321
315
334
338
324
314
327
328
306
363
318
329
328
315
325
335
330
315
325
335
335
320
328
341
342
319
318
329
331
314
315
328
331
318
315
327
334
319
314
328
335
323
315
328
338
328
317
324
336
321
297
379
330
330
320
329
342
339
324
331
342
340
325
329
342
345
329
323
331
331
315
313
326
332
318
313
329
335
323
313
324
332
322
311
325
335
327
316
326
334
327
311
312
308
383
301
317
330
329
314
320
333
335
318
319
332
336
321
321
337
337
317
311
322
329
315
309
323
330
318
308
322
331
321
310
321
330
325
310
322
335
331
315
323
334
322
296
379
321
333
317
320
332
336
319
321
336
339
324
324
340
349
336
323
333
337
324
315
328
337
327
315
327
335
327
315
324
334
329
315
324
334
333
318
322
333
331
314
295
339
377
294
318
329
333
317
318
332
338
322
318
332
339
328
323
336
335
321
310
323
332
323
309
320
330
327
311
320
331
328
311
318
330
332
318
322
332
332
313
295
340
373
293
316
328
333
318
315
329
336
321
314
329
339
329
321
331
332
322
308
320
330
324
310
321
332
328
312
320
330
330
313
317
330
331
318
321
328
329
312
303
308
385
302
309
323
330
316
312
324
333
323
315
327
336
329
320
331
334
324
305
315
325
322
306
315
326
324
306
314
326
325
308
312
327
328
310
317
329
330
311
311
308
319
372
290
324
331
318
311
324
333
326
314
328
337
331
318
329
341
330
310
317
326
325
308
314
327
327
311
315
328
329
311
312
323
328
312
311
328
331
314
311
323
316
306
366
304
332
320
310
321
330
321
312
323
332
328
317
327
339
334
313
317
327
325
307
314
326
328
310
311
326
329
311
311
325
331
317
312
330
334
317
309
321
315
315
356
300
328
320
308
320
331
326
313
325
334
332
318
327
340
337
316
317
327
329
310
315
326
330
315
314
327
331
316
311
323
330
316
312
327
333
321
310
322
315
310
364
299
327
319
307
318
328
325
311
321
334
331
316
325
338
337
314
315
326
328
311
313
325
329
314
313
324
329
314
309
323
330
318
312
327
334
321
307
321
321
300
367
309
328
323
308
318
330
327
312
321
331
330
317
323
337
341
316
313
324
325
309
309
323
326
310
306
320
326
314
307
320
329
318
309
323
333
321
307
319
322
297
355
313
323
324
307
316
328
328
310
317
332
334
318
322
335
339
316
311
322
324
308
304
320
326
311
307
320
328
316
307
319
328
320
312
323
331
323
308
304
320
373
291
316
324
323
308
314
326
330
315
317
329
335
322
323
336
335
318
315
328
334
322
317
329
335
324
315
328
335
325
317
328
334
331
317
326
332
327
305
306
386
321
317
322
333
333
317
322
335
335
320
320
335
340
327
326
332
334
319
312
325
331
320
313
323
329
321
311
325
331
324
312
319
329
328
314
323
329
327
302
300
387
319
313
316
328
329
312
316
326
327
313
312
326
329
317
316
320
323
311
303
315
321
313
303
313
322
314
301
312
320
316
301
309
319
317
306
312
319
318
303
291
318
370
285
308
319
323
306
308
321
327
313
313
325
330
322
318
328
328
314
304
315
321
313
302
313
322
316
303
315
322
319
304
311
322
322
308
312
320
322
302
291
367
320
300
308
321
324
312
313
325
332
319
313
327
335
327
319
325
328
318
307
319
328
322
307
318
327
322
308
316
327
324
307
314
327
327
314
317
325
326
309
287
340
372
294
312
325
329
315
310
325
333
319
313
325
337
326
317
328
328
315
307
314
325
317
302
314
324
317
299
309
319
318
301
306
316
323
308
313
321
323
306
300
297
373
296
306
317
329
311
302
319
327
313
306
316
327
324
316
331
335
320
311
323
332
325
317
320
331
329
312
313
322
324
303
311
320
321
312
305
318
321
306
293
299
369
291
298
315
323
307
299
315
328
320
310
324
338
323
324
329
334
330
305
312
321
323
307
306
319
317
288
296
297
301
284
256
249
242
193
169
20
30
30
30
30
30
32
32
42
44
44
44
44
45
45
45
45
45
45
45
45
73
93
91
109
134
142
129
135
153
164
155
168
194
210
212
230
256
270
270
277
300
311
292
376
338
355
361
364
383
400
399
397
413
426
430
428
440
455
455
440
449
456
458
445
453
462
464
454
454
464
464
449
449
456
460
451
449
455
456
446
434
417
500
461
441
459
461
452
442
448
453
446
432
438
442
438
426
430
431
423
405
406
411
407
391
392
399
397
380
378
384
385
370
367
377
382
366
358
366
364
331
394
355
352
352
342
349
356
349
338
346
352
350
339
349
357
353
335
336
342
342
328
331
341
342
328
329
339
341
327
329
342
347
339
335
343
350
338
310
386
363
334
341
355
363
359
349
357
363
360
347
354
361
359
344
344
347
341
328
330
340
338
323
324
332
334
321
318
327
328
317
313
326
328
315
309
317
294
340
335
298
321
312
303
313
321
317
308
318
325
324
325
367
383
378
360
363
368
366
349
349
357
356
340
340
348
349
334
332
339
339
329
325
334
335
323
315
304
325
370
285
322
325
319
309
318
325
322
309
317
326
324
313
320
326
319
303
303
313
312
298
300
312
315
302
301
311
313
301
297
307
313
302
298
311
315
304
294
304
297
288
345
283
307
301
289
297
307
302
290
297
304
304
293
298
307
305
285
283
292
291
278
280
290
294
280
279
292
296
287
282
293
299
289
283
294
302
298
288
296
301
295
273
277
347
280
282
291
299
297
285
290
299
299
285
289
299
304
293
291
299
300
286
285
297
303
292
289
300
306
296
292
302
310
304
297
307
315
312
302
316
321
316
305
314
298
339
347
295
325
325
312
319
328
329
317
319
328
331
317
319
329
330
311
304
313
319
308
304
314
318
308
300
310
316
306
297
306
314
309
299
309
317
317
304
312
320
317
296
289
375
314
309
317
327
328
317
319
333
338
326
326
337
343
336
333
340
340
330
323
335
342
334
324
335
343
338
328
334
342
337
326
334
341
340
327
335
347
344
327
329
340
315
338
372
318
343
329
327
341
345
332
329
340
347
338
335
345
354
341
327
333
338
331
322
331
336
334
320
329
336
332
321
327
337
335
319
325
335
339
323
323
334
336
301
334
370
313
324
321
332
336
325
321
335
340
331
325
337
345
339
325
329
333
327
321
332
338
335
322
329
337
336
322
328
336
334
321
326
336
340
324
323
332
333
294
336
365
314
324
320
329
336
327
319
331
336
327
321
331
340
334
319
322
327
322
311
320
327
325
315
319
327
327
314
320
329
329
314
318
327
330
320
318
326
329
316
296
316
381
295
315
323
329
320
313
325
333
326
317
326
336
332
324
330
332
325
309
317
327
324
313
318
328
327
312
316
326
327
313
313
324
328
315
315
327
329
316
312
321
298
355
327
313
329
319
310
322
327
321
312
323
331
327
319
329
339
331
313
318
326
325
312
316
328
329
313
317
327
330
320
317
327
331
320
318
330
337
325
321
329
336
314
305
380
318
328
319
330
338
334
323
334
343
341
330
338
352
352
336
337
341
342
328
332
345
347
336
336
348
352
339
340
351
355
345
344
357
363
356
349
358
365
357
324
383
404
346
358
369
379
378
372
391
409
414
409
426
444
451
445
446
449
443
425
424
433
430
413
408
415
417
402
400
413
417
402
393
400
403
392
383
394
404
401
394
399
383
452
396
392
403
398
382
388
396
397
379
381
386
382
365
366
374
366
347
342
349
350
332
325
335
339
323
315
322
321
307
298
307
311
299
288
298
305
297
283
288
295
285
243
321
304
276
270
276
284
283
269
274
285
288
273
276
291
294
282
277
284
288
273
270
282
288
276
271
282
288
279
272
284
292
285
275
286
293
290
281
292
298
294
282
285
275
345
287
286
305
307
291
295
306
311
299
300
315
321
311
311
324
323
308
301
312
320
309
301
313
321
315
306
317
325
320
308
318
325
322
311
322
331
327
311
316
315
314
364
299
327
332
316
320
332
335
323
324
334
340
329
325
340
347
328
320
328
336
327
319
329
336
331
320
329
338
334
322
330
338
334
328
340
352
348
331
336
346
326
323
387
321
346
331
331
344
347
335
334
345
349
337
332
345
354
342
327
334
340
330
320
329
336
332
318
327
335
331
319
326
335
331
317
322
334
336
317
319
329
323
296
375
320
334
319
318
328
333
322
318
329
336
326
319
332
340
332
316
323
327
321
309
319
327
323
308
318
326
325
312
316
328
328
314
318
330
332
316
316
326
325
290
360
325
322
315
312
325
331
320
314
325
333
325
317
329
340
334
316
323
329
323
311
321
330
326
313
320
329
329
314
319
331
330
317
323
333
333
316
317
318
318
368
299
326
335
323
319
332
340
328
322
335
342
338
327
339
344
332
317
324
333
330
317
326
338
335
326
338
352
351
337
340
351
352
338
335
346
348
333
304
364
385
315
328
337
341
332
323
335
343
334
323
333
342
338
327
332
334
330
315
323
332
329
314
321
330
331
314
317
328
329
315
316
328
334
318
314
325
327
286
332
363
312
317
309
321
328
320
310
323
331
324
314
326
336
334
320
323
329
327
312
319
328
327
313
318
329
331
317
319
331
333
319
317
332
335
319
315
325
312
323
363
303
331
321
314
324
332
326
314
325
332
328
316
326
337
332
312
315
324
325
308
313
325
324
309
311
323
326
313
312
323
329
317
315
325
326
314
304
297
368
319
299
322
328
322
311
324
333
328
317
326
337
336
323
330
334
329
313
316
327
327
311
314
327
328
313
313
323
327
315
311
326
332
320
314
321
330
316
284
366
337
314
313
322
330
326
311
320
331
329
317
325
339
338
325
325
332
330
316
318
331
332
318
319
333
338
323
321
333
338
326
320
334
345
333
324
333
340
325
302
379
325
334
322
331
340
336
322
331
340
339
326
333
346
349
335
332
338
339
323
325
337
340
326
326
341
346
333
329
340
345
333
324
337
344
339
326
334
341
333
304
324
384
309
320
325
335
333
318
323
335
336
319
323
335
338
325
324
329
329
312
311
322
327
315
310
321
328
317
308
320
326
318
307
319
327
324
308
316
325
320
293
313
364
300
306
311
321
323
310
315
327
331
316
318
331
338
323
319
326
329
316
310
322
328
316
309
322
327
320
308
320
328
321
309
320
332
327
309
316
325
308
309
361
304
326
308
311
323
325
311
313
324
327
315
314
328
336
320
312
322
326
316
307
319
326
318
309
318
328
323
309
319
328
325
311
319
333
328
310
317
325
301
323
356
308
329
313
311
324
328
315
313
327
333
320
317
330
339
326
312
320
326
317
307
320
329
324
312
319
328
324
308
315
325
326
311
318
332
331
315
316
327
323
283
360
322
324
312
309
320
328
317
313
327
332
323
315
327
337
330
315
321
326
321
308
317
325
323
308
318
328
326
310
317
328
328
311
314
327
333
315
315
326
330
299
309
372
309
318
310
323
330
320
313
326
334
323
313
325
336
333
318
322
327
324
310
317
328
327
312
316
327
328
315
315
326
329
312
312
328
333
317
312
324
310
327
355
300
332
319
310
323
330
324
313
326
337
333
320
328
339
330
312
314
325
323
307
312
323
324
309
311
323
326
311
309
323
328
316
313
326
330
315
307
316
299
361
313
312
327
319
306
317
327
323
310
320
331
329
314
322
335
331
310
312
322
325
310
311
321
322
308
309
322
326
312
309
321
327
317
312
322
328
318
309
304
320
375
287
321
326
322
308
318
329
327
313
321
330
332
318
323
335
328
310
310
322
326
311
310
324
327
313
309
322
327
314
307
321
329
320
313
323
329
323
306
291
354
349
293
319
329
326
311
318
330
332
315
320
333
335
322
325
332
332
315
311
324
328
314
310
324
330
318
310
321
327
318
308
320
331
324
307
317
327
302
320
353
302
322
305
310
321
324
308
311
324
327
312
314
329
334
317
308
318
322
310
306
319
326
316
307
318
327
318
308
317
325
322
309
319
328
322
308
309
299
368
308
308
326
327
311
312
328
331
316
315
328
335
321
320
332
333
317
308
319
326
316
306
317
327
320
309
317
324
319
308
317
328
328
313
317
325
325
303
291
378
314
308
310
320
321
306
306
322
327
314
311
324
332
323
317
321
325
314
303
316
324
316
306
316
324
320
304
313
323
319
305
312
326
325
309
310
323
323
280
342
341
313
313
309
322
326
314
312
324
332
320
313
324
333
326
311
319
324
317
306
314
323
320
307
316
326
325
311
317
328
328
311
318
328
327
312
313
310
329
360
293
328
332
320
314
329
336
324
317
328
335
330
321
331
335
326
310
320
329
326
312
319
330
327
310
316
327
325
309
311
326
329
315
314
324
328
310
283
359
343
306
310
323
330
320
312
323
332
325
318
327
339
335
321
325
329
323
309
317
326
324
309
316
328
329
313
315
327
330
316
314
326
335
320
313
324
330
298
316
375
309
324
313
324
331
326
313
325
334
328
316
328
340
339
322
322
330
328
311
318
328
330
315
315
328
332
318
316
329
333
318
316
331
337
324
313
325
325
302
362
314
328
326
313
323
333
328
314
323
333
334
320
328
341
340
315
315
324
327
312
314
325
330
313
312
324
327
317
311
323
330
324
320
330
335
326
314
315
328
376
296
322
334
330
315
324
333
332
318
322
335
336
322
327
334
331
312
310
321
325
311
309
322
324
313
307
319
328
317
309
320
326
320
312
319
327
321
306
299
321
372
287
316
325
324
309
314
326
328
313
315
330
332
319
320
330
329
313
308
319
326
314
306
318
326
316
306
319
326
319
307
318
326
323
313
321
331
325
310
314
295
358
328
305
325
325
310
311
324
328
315
312
327
333
321
318
332
331
317
307
317
325
315
305
316
323
318
304
314
324
320
304
314
323
322
307
313
327
324
307
308
321
296
323
347
302
326
311
309
324
330
317
312
325
332
324
317
329
338
328
312
318
325
319
309
317
326
323
308
317
328
327
311
316
328
329
312
316
332
334
317
314
327
318
310
361
305
329
318
313
327
333
325
315
326
335
330
321
331
340
334
314
320
329
328
312
318
329
327
310
314
326
328
313
313
325
327
316
315
330
332
314
309
322
304
332
350
299
328
317
308
320
329
324
311
323
332
330
315
325
336
331
311
318
327
326
310
312
324
325
311
310
324
329
313
312
324
330
317
313
329
332
318
310
322
307
322
356
296
329
321
308
316
327
326
313
318
328
328
316
321
333
331
309
310
319
322
307
307
321
326
312
307
320
326
313
306
317
325
315
306
323
327
318
308
317
300
331
348
294
325
322
305
312
325
325
311
316
327
328
315
318
331
332
312
308
320
323
309
303
315
323
313
305
318
325
315
304
316
324
318
308
316
324
320
305
293
357
339
292
314
325
327
311
316
328
331
317
318
330
335
323
322
328
330
315
308
321
327
318
310
321
328
320
308
320
329
322
307
318
329
323
307
313
325
298
330
348
304
327
309
311
322
326
313
313
325
331
317
314
329
337
321
308
318
325
313
304
314
323
317
305
316
324
318
307
315
326
323
308
318
325
322
306
306
293
361
324
299
320
322
306
308
321
326
314
311
323
331
320
315
326
328
317
303
315
322
314
303
313
323
318
305
313
323
322
306
311
322
323
313
315
324
327
309
281
338
363
293
310
321
326
314
310
324
333
321
314
328
337
331
323
330
334
324
310
319
327
324
310
316
327
326
309
315
326
327
312
317
329
334
316
314
325
328
291
328
356
307
318
310
323
329
321
314
324
332
326
315
329
339
333
316
321
328
324
310
317
326
328
311
315
327
326
311
312
323
326
313
316
328
330
316
311
310
322
369
290
321
329
320
309
322
332
327
317
326
336
332
320
329
335
329
309
315
325
323
308
314
326
328
311
314
327
331
315
314
324
330
321
315
325
330
320
301
304
380
305
306
317
327
323
310
320
330
325
312
321
334
334
320
324
331
326
309
312
323
326
311
312
324
326
312
310
322
328
316
311
323
330
324
313
322
327
320
292
313
383
300
310
317
327
325
312
320
331
328
315
321
333
336
322
321
328
326
310
309
321
327
313
309
322
326
315
308
320
326
316
306
319
329
321
306
316
323
307
298
365
305
322
308
315
325
326
311
315
327
328
314
317
332
336
319
313
324
327
312
308
321
326
317
310
322
328
319
309
321
329
322
313
322
327
321
308
299
325
367
285
313
325
325
310
315
325
328
312
314
327
332
320
319
328
328
311
306
316
323
312
303
316
323
315
304
316
324
318
304
317
326
326
310
319
326
324
298
296
379
312
308
313
326
327
312
313
327
329
317
316
329
335
325
316
325
327
316
308
318
327
319
308
318
324
318
307
316
326
321
307
315
327
326
308
310
320
320
276
355
328
319
308
309
321
325
311
309
322
326
314
308
323
331
324
308
317
322
314
305
313
322
316
304
313
322
320
304
313
322
320
306
311
326
326
309
312
322
304
312
358
302
328
313
309
322
329
317
312
326
334
326
318
330
340
329
313
322
327
323
311
320
331
328
315
321
333
332
317
323
334
336
323
324
335
338
323
308
330
390
309
326
343
351
342
337
352
363
356
349
362
372
367
357
363
365
357
340
348
358
354
337
342
352
349
333
335
346
345
328
327
338
344
327
322
332
335
304
311
379
310
319
308
322
329
320
307
319
325
319
307
316
328
325
306
309
314
310
296
301
312
311
298
302
312
313
297
297
307
309
296
295
309
314
301
294
304
310
272
333
319
306
306
294
305
314
308
296
305
314
310
297
304
315
315
295
297
312
312
298
301
313
315
302
303
316
319
304
302
314
321
309
305
318
326
315
304
314
319
284
338
335
311
317
304
314
325
323
309
317
326
325
310
318
331
332
313
310
321
321
306
308
320
325
311
308
319
325
312
306
319
327
317
308
324
330
320
309
320
311
326
356
302
332
328
313
322
333
334
320
325
338
340
326
331
345
343
321
318
330
333
320
317
329
335
322
316
327
333
322
314
326
334
326
319
326
332
327
313
301
339
375
292
323
331
329
314
320
330
334
319
321
333
339
326
327
335
336
317
313
326
333
321
313
327
334
323
314
326
334
326
314
324
333
328
316
326
333
330
314
318
300
366
335
310
332
332
317
318
332
335
322
323
335
340
328
326
341
341
324
316
327
335
325
312
325
331
325
313
322
330
327
313
322
328
326
309
318
331
330
313
316
328
303
325
361
309
331
316
312
325
330
319
316
327
335
323
317
333
342
328
312
321
327
321
308
318
326
324
308
316
325
323
308
314
325
324
309
313
325
330
313
313
323
325
297
297
369
307
312
307
320
326
318
311
326
335
326
317
329
338
336
320
324
330
325
311
316
324
323
310
316
326
327
311
313
325
326
313
314
326
332
317
314
324
328
307
289
370
318
310
308
319
327
320
311
324
333
327
314
326
335
332
316
319
324
320
305
311
323
324
309
312
323
325
310
310
322
324
311
307
320
325
314
313
324
328
317
309
305
314
371
289
315
324
318
307
317
326
324
311
318
329
326
313
322
331
327
306
309
319
321
307
305
320
325
311
307
319
325
312
307
320
327
315
308
318
326
320
305
316
322
315
277
324
367
299
305
313
323
320
306
313
325
323
310
313
329
333
320
319
325
324
310
306
319
323
310
305
316
322
312
303
317
323
315
304
313
321
315
305
319
326
319
304
309
304
311
350
289
322
322
305
308
320
323
309
310
323
327
315
314
327
330
312
302
314
321
310
301
312
321
314
302
314
321
315
305
314
325
320
306
314
328
324
307
311
320
309
293
358
302
320
305
307
319
321
307
308
321
327
315
312
323
332
321
307
315
321
312
302
313
321
315
304
313
322
317
304
312
322
320
304
311
323
323
308
314
324
324
307
309
305
309
359
288
319
323
308
306
318
323
314
305
318
326
320
313
326
333
320
304
312
318
314
301
309
319
316
301
308
320
321
304
308
320
321
307
308
319
324
312
309
317
322
309
295
294
373
300
300
314
321
312
304
314
322
317
305
315
325
322
312
320
324
317
301
309
320
319
302
305
320
322
305
306
317
320
307
306
320
324
312
306
318
324
315
306
317
323
314
284
311
370
292
303
311
321
316
304
314
324
321
308
317
327
328
312
315
319
318
301
303
315
315
301
300
313
318
304
301
315
320
306
301
313
320
310
305
318
324
314
300
312
314
292
345
306
311
316
301
309
321
320
306
312
324
324
310
314
326
331
308
303
315
319
307
303
313
323
312
308
319
327
316
307
320
327
320
308
318
328
326
311
318
325
322
296
296
377
311
307
315
324
325
310
313
327
329
313
314
327
332
320
318
325
326
311
306
320
326
313
306
318
326
317
307
318
327
320
307
318
326
321
308
320
328
325
308
315
318
299
359
306
322
326
311
312
323
327
312
312
325
329
317
316
330
338
322
308
318
324
316
305
316
323
318
304
314
323
319
305
314
324
321
308
313
325
324
312
315
321
322
307
284
335
363
291
311
321
324
311
308
320
327
316
308
322
330
322
315
323
324
316
304
314
322
316
304
312
322
319
304
311
321
320
306
309
322
321
307
311
322
323
308
309
317
303
354
309
311
326
313
306
319
327
317
308
321
331
323
313
326
333
323
305
312
320
317
303
312
324
320
305
310
321
321
305
308
321
324
308
308
321
327
311
306
319
325
303
284
370
315
309
304
317
324
316
306
318
328
322
311
321
334
332
316
318
323
320
303
309
321
320
305
309
321
324
307
308
318
322
307
305
317
321
311
307
320
324
311
302
312
292
346
329
303
324
315
304
313
323
321
309
317
327
326
313
321
335
330
307
310
321
323
307
309
321
323
309
306
317
322
308
306
317
322
311
305
317
326
317
307
316
322
314
300
286
359
329
291
311
320
317
305
311
323
323
309
313
325
325
313
316
323
319
303
301
313
318
305
301
313
322
310
303
315
320
310
299
311
316
308
300
311
323
316
302
309
318
293
323
338
298
318
301
306
317
319
304
307
320
322
309
313
325
331
312
306
316
320
308
301
312
317
310
301
311
318
310
298
309
316
310
301
310
321
318
305
309
316
316
299
280
350
343
290
305
319
319
306
307
320
323
310
309
322
329
321
318
326
327
314
304
319
329
322
312
322
329
322
310
320
328
323
309
319
328
325
310
315
327
329
310
312
321
322
281
333
361
309
310
309
320
326
312
307
321
326
316
309
324
332
324
312
318
322
315
303
312
321
315
302
310
319
316
300
306
316
315
299
302
314
316
302
305
319
320
303
300
315
299
298
355
293
321
307
300
313
321
312
302
313
323
316
305
317
329
325
305
310
318
314
299
306
316
316
301
305
314
315
300
303
315
317
302
301
314
318
308
303
312
318
304
275
326
355
285
299
308
317
310
299
311
320
317
325
338
355
353
343
346
351
351
333
338
350
349
336
339
351
355
339
340
352
354
340
338
350
360
347
339
349
355
327
328
399
333
344
333
343
351
347
333
340
350
348
332
342
353
354
337
334
342
341
325
327
339
341
326
326
338
341
328
324
339
343
332
326
339
344
333
323
334
336
309
374
330
338
335
320
329
340
336
322
330
340
342
327
335
347
346
323
323
333
334
321
321
331
334
320
318
330
337
326
318
329
336
326
317
334
340
331
318
327
310
336
367
303
335
330
315
324
334
335
322
329
338
339
326
332
344
343
323
319
331
334
320
317
329
336
322
319
331
338
326
318
331
339
330
320
333
342
336
319
328
336
305
347
352
317
335
318
322
334
335
320
324
336
339
327
329
342
348
329
320
331
333
323
317
329
334
326
319
329
338
330
320
330
337
332
320
330
343
339
324
330
339
311
349
357
320
341
325
328
340
341
326
326
340
344
332
328
344
350
333
319
330
334
324
314
327
334
326
315
324
334
327
313
324
332
329
314
322
331
334
323
325
334
332
316
309
313
389
307
317
331
332
322
317
331
337
324
320
333
341
334
327
340
339
329
316
326
334
331
317
329
336
333
319
325
336
335
318
323
335
337
320
322
334
337
324
324
334
337
321
314
306
383
328
311
330
337
326
319
329
336
328
320
330
339
337
326
334
339
330
312
318
330
330
313
318
331
331
317
321
331
335
320
320
331
335
323
318
332
337
326
322
332
339
325
317
319
318
380
306
323
338
332
319
330
337
335
322
330
339
338
326
334
346
340
319
320
333
334
321
319
331
335
320
319
330
336
323
317
330
336
326
316
330
337
329
320
330
340
332
319
325
336
318
304
381
320
334
319
326
336
336
319
322
334
337
325
325
340
345
335
324
331
334
321
314
326
334
323
315
325
334
327
315
326
334
330
316
324
334
332
317
322
336
335
322
325
335
334
316
290
374
352
311
322
335
338
325
320
333
339
327
320
333
341
335
326
332
336
325
314
322
332
326
312
322
330
326
313
319
331
330
316
319
332
334
317
321
331
335
323
320
331
331
320
299
320
382
303
313
326
334
326
318
329
337
330
317
330
340
337
327
334
337
331
314
319
330
330
315
317
331
332
316
320
332
337
320
319
331
335
323
320
333
337
325
317
328
329
300
367
327
327
326
313
323
335
333
320
329
337
336
322
328
343
343
321
321
329
331
315
317
327
332
318
316
329
333
321
316
328
336
324
314
328
335
331
318
325
335
328
286
353
369
314
317
323
334
331
319
324
336
336
322
326
338
342
331
327
334
336
321
316
330
336
324
315
327
332
324
316
327
337
326
315
325
335
330
317
324
331
328
309
287
383
335
310
320
331
330
316
319
331
332
319
320
332
339
327
326
334
336
319
314
325
333
323
311
323
329
324
312
323
331
327
313
320
332
332
315
320
328
328
306
292
378
324
307
314
324
327
315
314
328
330
318
314
327
334
326
319
325
326
317
309
321
330
323
311
322
332
328
311
320
329
327
314
321
336
333
314
318
327
306
352
337
314
335
320
318
332
338
324
318
333
340
329
321
336
341
330
315
325
333
325
313
321
331
326
310
318
329
326
311
317
327
329
317
320
328
329
313
296
308
384
297
309
322
328
316
309
322
329
320
311
324
333
326
318
328
330
324
306
315
324
322
307
314
323
323
307
311
321
323
308
310
323
329
315
311
323
324
299
290
380
308
314
307
318
326
318
308
322
329
321
310
320
331
328
315
317
323
319
304
310
322
321
306
309
319
322
307
306
319
322
305
305
319
327
312
304
317
322
285
313
362
299
313
300
311
323
314
303
313
323
320
309
319
329
330
308
310
316
317
302
304
316
318
306
306
318
322
306
304
315
322
308
306
317
325
314
303
314
318
288
345
317
311
316
303
313
323
321
308
315
326
327
312
317
329
331
311
311
339
343
330
326
331
336
320
316
327
333
319
315
329
335
326
317
332
339
332
317
326
333
300
357
341
322
329
312
321
330
333
318
324
337
339
325
328
341
346
325
319
331
332
321
315
326
331
320
314
326
331
324
312
323
331
326
314
327
336
331
317
322
334
328
286
368
343
328
320
320
331
334
318
318
331
335
323
320
333
339
328
319
326
332
320
311
322
328
320
311
322
330
324
312
320
330
328
314
320
330
330
318
320
329
329
312
295
322
384
294
314
325
332
317
314
327
333
322
314
328
336
328
319
330
331
321
308
318
327
324
309
316
328
324
308
315
325
326
309
313
324
326
312
315
327
330
314
312
312
310
369
298
320
329
320
310
321
330
324
314
324
333
331
319
331
349
338
321
326
336
334
318
323
334
337
320
323
333
337
322
322
335
339
329
324
336
346
334
324
336
342
304
352
370
328
335
324
332
343
339
327
334
345
343
330
335
347
350
330
326
338
337
326
325
336
341
327
325
337
342
328
323
334
342
331
323
333
342
337
325
334
341
335
313
298
390
333
314
325
334
333
321
325
338
339
324
326
337
340
328
326
335
336
320
313
329
334
321
311
324
330
324
313
322
329
322
313
323
331
327
314
323
333
329
312
317
316
310
366
301
324
331
315
316
330
334
322
318
330
335
325
321
335
341
329
314
322
329
322
310
321
330
326
310
321
330
328
314
319
331
330
315
321
336
335
318
317
328
315
309
370
309
332
321
316
328
334
326
318
329
337
329
322
334
344
338
316
322
328
326
311
318
328
330
314
320
331
331
318
319
331
333
319
318
329
336
328
320
330
334
326
299
317
391
307
317
325
334
330
317
328
338
334
320
326
340
339
326
330
336
331
316
317
331
331
317
317
330
333
319
317
329
334
323
317
328
334
324
316
330
335
327
314
323
299
366
338
312
336
330
316
323
333
331
316
321
333
335
322
325
338
338
320
313
325
329
316
311
324
331
322
311
323
330
321
310
323
330
325
312
323
334
330
314
321
329
300
343
342
312
327
313
313
328
332
315
316
326
330
320
318
333
341
325
311
322
327
319
309
319
326
321
309
317
328
322
309
318
328
328
311
321
329
328
313
315
306
345
357
296
329
332
320
317
332
337
326
321
333
340
332
324
338
339
326
312
320
329
324
310
319
329
326
310
317
327
325
312
317
327
329
317
317
327
330
316
294
326
383
296
312
325
331
323
314
328
334
328
318
332
340
337
325
330
335
328
312
320
329
330
317
323
334
334
318
320
329
330
316
312
325
330
321
315
325
330
320
297
308
388
304
311
321
329
323
312
321
333
330
314
322
336
335
321
325
332
328
312
312
324
326
311
309
322
326
313
310
322
327
316
309
321
329
322
313
321
328
320
304
288
379
324
303
316
329
324
312
317
329
330
316
321
334
338
325
326
333
328
315
309
321
328
315
307
320
327
319
308
320
328
320
309
318
326
323
309
322
329
324
309
316
316
311
364
297
324
327
312
314
328
331
318
316
327
335
324
320
333
340
326
311
322
328
320
311
321
331
324
310
322
329
324
310
317
329
328
310
316
333
332
314
314
327
309
312
368
301
330
316
309
322
330
317
309
321
330
323
314
325
339
329
308
317
324
320
305
312
323
323
308
312
323
324
306
308
322
325
309
309
320
329
317
312
324
327
316
302
289
378
321
301
319
327
321
308
320
328
325
311
320
329
331
316
323
327
325
309
309
321
325
310
309
322
326
312
308
321
327
315
304
318
327
318
308
319
328
320
305
318
316
298
362
306
324
326
310
315
325
328
312
313
327
329
316
315
330
335
314
305
317
322
311
304
315
320
312
303
314
323
316
303
314
323
320
304
313
327
324
307
312
323
318
282
356
322
317
311
309
325
329
314
312
324
332
320
312
324
194
302
298
312
323
319
309
318
326
326
313
320
329
326
313
318
327
326
311
315
325
328
320
314
325
327
314
294
310
381
296
310
321
327
320
311
320
329
322
313
321
329
328
319
324
326
323
309
315
323
324
310
312
322
337
328
328
341
344
333
331
340
343
334
324
335
343
331
322
329
332
296
357
346
324
330
317
322
332
330
318
325
335
333
323
328
338
339
322
317
324
327
316
312
325
330
320
314
323
326
322
315
325
334
325
317
325
331
329
320
324
332
330
319
303
326
386
296
321
329
331
320
321
330
335
323
321
333
339
333
329
337
334
322
313
322
329
322
312
322
328
325
312
319
330
329
316
321
330
330
318
322
331
333
316
315
322
310
367
312
321
332
322
317
329
334
329
321
330
338
332
325
336
343
335
317
323
331
331
319
325
335
333
319
322
331
333
321
320
331
334
324
322
333
338
324
321
328
307
371
335
320
337
329
318
327
335
333
322
330
339
336
326
331
342
336
318
320
330
332
320
318
328
332
321
316
328
331
320
314
324
330
323
316
329
335
327
314
322
321
304
371
313
327
326
313
317
327
329
318
320
330
332
321
323
337
342
326
318
327
334
322
315
326
334
327
315
324
333
325
312
322
332
330
315
323
336
335
318
320
331
331
294
314
385
310
320
316
328
331
318
314
329
337
324
318
330
339
333
323
328
333
322
311
321
330
328
314
323
333
332
314
321
332
333
317
323
333
336
321
320
331
334
323
314
307
381
318
309
327
335
327
318
330
338
331
322
331
339
337
324
333
339
331
317
321
330
331
314
318
329
332
320
318
330
333
321
318
328
333
325
319
331
335
327
314
297
357
364
298
327
334
332
319
326
337
335
321
324
335
337
324
328
336
334
317
313
326
333
321
315
328
335
322
315
328
333
325
317
327
335
330
317
329
336
327
312
325
305
339
366
299
333
329
316
317
330
333
321
321
333
337
323
320
338
343
326
315
325
334
326
314
325
333
327
314
323
333
329
312
321
333
331
318
323
334
334
317
318
321
302
372
309
323
333
319
313
327
333
323
317
329
337
330
321
334
343
331
314
319
328
326
312
320
330
331
315
318
333
333
317
318
333
334
319
318
334
336
321
314
327
309
335
358
304
334
326
312
325
335
328
317
325
335
334
320
328
339
335
315
315
325
325
310
311
323
329
314
312
325
331
319
312
324
331
321
317
325
331
325
315
304
345
376
296
328
336
333
317
323
336
335
320
322
336
337
323
326
335
333
316
314
326
332
321
314
328
335
323
314
326
333
325
312
326
334
329
319
324
334
328
312
297
333
382
293
319
332
335
318
319
334
337
321
320
332
338
329
324
335
334
320
310
320
329
322
309
321
330
322
309
318
329
328
311
320
330
331
316
319
333
332
317
312
297
379
324
307
327
333
321
313
329
337
328
316
328
338
333
322
334
338
330
313
322
332
330
313
319
329
330
314
317
331
331
316
317
328
334
323
318
330
332
321
309
299
376
334
303
326
334
327
314
325
335
330
317
325
338
338
325
331
334
331
313
314
328
331
317
314
326
334
317
313
325
331
319
313
327
335
325
315
323
331
318
289
369
326
320
314
322
333
330
315
320
335
336
320
324
336
339
325
318
326
330
315
311
324
329
319
312
324
332
321
310
324
331
325
311
324
335
332
314
321
333
328
284
358
353
320
315
319
330
333
320
318
333
338
324
321
336
345
336
320
329
336
323
313
326
335
327
315
325
332
330
314
322
332
332
313
320
333
336
321
321
330
332
312
285
373
346
311
314
326
334
323
314
328
336
328
316
328
340
336
324
328
331
326
311
318
329
326
311
318
329
331
314
316
330
333
321
318
330
336
322
320
333
337
324
313
319
303
368
312
316
332
328
312
326
334
333
318
325
338
338
321
329
342
338
317
315
327
332
317
314
326
331
317
312
328
335
322
312
325
334
324
312
324
336
327
313
323
331
304
334
355
312
332
316
320
334
334
318
320
333
337
324
325
339
343
325
312
323
331
320
313
326
334
327
316
326
333
327
313
323
332
330
315
322
333
334
318
326
337
336
320
317
301
362
348
301
332
336
321
316
329
335
324
316
329
338
332
322
335
342
332
314
321
332
328
312
320
332
330
314
319
331
332
315
318
330
334
317
317
330
336
326
321
331
336
326
309
300
385
325
312
326
336
328
315
323
334
334
317
326
340
338
324
329
336
332
313
313
328
331
316
313
327
330
317
312
324
333
320
312
325
331
324
312
323
335
327
309
317
327
300
327
347
305
327
310
313
327
327
312
314
328
333
322
320
335
342
325
315
327
330
317
309
323
330
324
311
322
329
323
310
320
330
328
312
322
330
326
309
313
305
348
346
293
328
329
313
311
328
332
321
318
330
339
330
324
338
341
330
315
323
331
325
313
325
335
333
318
325
333
332
319
321
334
337
324
324
333
336
319
307
308
386
315
312
329
335
325
317
329
337
331
318
331
342
338
325
333
337
330
313
322
333
331
314
318
333
333
315
314
329
333
317
314
330
336
326
316
326
333
319
297
311
387
308
310
321
329
323
311
322
333
331
314
322
333
334
320
324
332
330
312
311
323
327
312
309
322
328
314
308
320
328
317
309
322
329
322
313
321
327
322
307
290
342
364
288
319
328
326
311
314
330
331
317
319
330
337
324
323
333
332
314
307
320
328
316
305
319
328
318
306
318
327
322
310
320
333
330
314
320
325
324
305
283
365
334
293
311
321
325
310
309
325
331
320
314
328
338
328
320
326
328
318
307
320
328
322
309
319
329
326
310
315
325
325
310
314
325
327
315
314
324
326
310
286
325
378
290
308
320
328
318
310
323
333
325
314
326
337
332
321
329
333
325
308
317
327
326
307
311
323
323
309
310
322
325
310
309
321
325
313
313
323
325
313
305
301
315
370
282
315
323
317
302
313
325
321
304
313
325
327
312
320
333
328
307
307
318
324
308
307
320
325
311
305
318
326
314
306
321
328
319
308
322
328
321
307
315
300
352
325
296
324
323
304
310
324
325
310
310
324
329
314
316
331
329
310
303
316
324
312
304
319
326
317
305
316
325
318
305
317
325
322
307
316
324
