525
524
524
528
535
537
534
534
538
544
542
539
539
542
542
536
532
531
531
525
517
513
514
514
509
505
504
507
508
502
499
500
505
503
499
498
501
504
502
499
500
503
503
498
497
501
505
502
498
497
501
505
501
498
500
504
505
500
498
501
505
503
499
498
501
504
501
499
500
507
506
502
505
511
509
507
510
514
508
503
505
506
502
501
506
506
501
502
507
505
501
504
511
509
505
507
513
516
522
532
538
531
519
507
497
492
498
509
512
508
510
516
514
511
514
520
517
514
518
521
517
516
519
522
518
518
523
524
519
519
525
525
521
524
531
530
528
532
538
536
535
539
541
534
531
533
530
520
515
517
514
506
504
507
502
497
497
501
496
493
495
499
494
492
496
499
495
495
499
499
496
497
503
502
498
500
504
502
500
503
507
502
499
502
506
502
502
506
507
502
502
507
507
502
503
508
508
505
509
514
510
507
510
512
508
507
511
512
505
503
506
505
501
502
507
506
502
504
509
506
501
504
508
505
506
515
524
524
526
526
516
498
491
499
505
504
505
510
508
506
509
514
510
507
511
515
511
510
514
518
513
513
518
519
515
516
521
520
517
520
528
527
527
532
539
536
534
539
543
538
538
542
541
532
526
527
523
514
510
511
505
499
498
502
497
494
496
500
495
492
496
498
492
491
496
496
491
491
497
498
494
496
502
501
498
502
507
504
500
503
506
501
499
503
505
499
498
503
503
499
499
504
504
500
501
506
502
498
499
503
500
499
502
504
499
499
505
506
501
502
508
508
506
507
510
506
501
501
502
498
495
499
502
497
496
500
503
498
498
503
503
502
509
520
525
527
529
525
505
490
491
501
502
502
506
508
503
502
507
509
505
506
512
513
509
510
516
515
512
515
520
518
516
520
524
521
522
528
532
531
533
540
542
540
543
549
548
543
544
549
542
534
531
530
520
514
513
513
505
502
504
503
497
497
503
502
497
498
502
500
496
497
502
498
495
497
501
497
496
501
503
497
496
502
502
498
499
505
503
499
501
504
501
498
501
504
499
497
501
503
498
497
503
504
499
500
505
504
499
500
505
503
500
502
507
504
503
507
511
507
506
510
512
508
509
513
511
505
505
509
507
503
503
507
504
500
501
505
503
502
505
507
503
506
517
525
528
535
538
522
501
494
501
505
506
510
514
510
509
511
515
509
508
513
515
510
510
517
518
515
515
521
520
517
520
527
524
522
526
533
530
530
535
539
536
537
544
545
542
542
546
544
537
534
536
528
519
516
517
508
502
503
505
500
498
502
503
496
494
500
501
497
497
502
500
496
499
505
502
499
503
508
503
502
506
509
503
502
506
507
501
500
505
505
499
499
504
501
496
498
502
499
497
501
506
502
502
506
508
502
502
507
507
503
504
508
506
502
504
509
506
503
506
511
506
504
509
513
507
506
510
510
504
503
506
505
499
499
504
501
496
497
502
497
494
498
501
497
497
505
514
515
522
532
531
514
497
490
489
490
495
502
500
497
499
504
500
499
503
507
504
505
511
513
509
510
516
516
511
513
519
518
516
520
526
523
521
525
530
529
531
538
542
538
536
540
540
534
531
533
527
518
514
514
507
501
501
502
497
494
496
499
494
492
496
497
492
492
497
496
492
494
500
497
492
495
500
497
496
499
503
499
498
502
505
501
500
505
505
500
499
504
502
498
499
504
501
497
500
505
503
501
505
509
504
503
507
509
504
505
510
509
505
506
511
510
508
510
514
510
508
513
517
513
512
515
516
510
509
513
514
509
509
513
511
507
508
512
510
507
509
512
509
512
524
534
537
540
541
526
505
497
505
510
510
511
515
513
510
512
517
515
513
515
518
513
512
516
520
517
517
521
522
519
520
526
526
525
528
535
535
534
537
542
541
542
546
549
544
543
546
546
538
533
533
526
517
515
515
510
504
503
506
502
498
500
503
500
498
501
504
500
499
504
504
498
498
503
502
497
498
503
500
496
498
502
499
497
500
504
499
498
501
503
498
498
504
504
500
501
506
504
500
502
506
503
498
500
503
499
498
500
503
498
497
502
504
499
499
505
505
502
505
510
508
505
507
511
508
505
508
510
504
501
504
507
502
502
506
506
502
503
508
505
502
504
508
506
507
515
525
526
529
532
521
500
490
497
503
501
503
508
507
502
503
509
507
504
507
513
510
508
512
516
511
511
517
519
516
518
524
525
522
523
529
529
528
532
538
536
535
539
544
541
539
543
543
536
530
531
528
517
512
514
510
503
503
506
501
496
497
501
497
494
496
499
495
494
498
500
495
495
501
501
496
497
501
499
496
498
503
499
497
500
504
500
499
504
506
502
500
505
505
500
501
505
504
498
497
502
500
496
498
502
498
495
499
503
499
498
502
504
499
498
503
504
501
503
508
506
503
504
510
506
503
504
506
499
496
500
502
497
495
500
499
493
493
498
497
493
494
499
500
504
515
529
532
527
516
501
488
491
501
507
504
505
511
510
505
508
513
512
508
510
516
513
510
514
518
514
511
516
520
516
517
523
524
521
524
531
532
530
534
542
541
540
543
547
544
541
542
542
533
527
526
523
514
510
511
508
502
502
506
503
497
498
502
498
495
498
503
499
497
500
503
498
498
502
503
498
499
506
505
501
502
506
504
501
502
506
501
498
502
505
502
500
504
506
500
499
503
504
499
500
506
505
501
502
506
503
500
504
507
503
501
506
511
507
506
511
513
509
510
516
515
509
509
512
509
504
506
510
507
504
508
511
506
505
510
513
509
511
521
529
533
542
552
544
523
510
510
511
513
519
524
520
518
521
523
518
515
519
521
516
516
521
521
517
518
523
522
519
522
527
525
525
530
535
533
534
541
546
543
544
549
550
546
546
550
546
539
536
536
528
520
518
516
508
503
503
504
498
496
500
500
493
492
498
498
494
496
502
499
496
498
503
499
496
499
503
498
498
503
505
500
499
503
505
501
501
506
504
499
501
507
503
500
503
507
503
500
503
506
500
499
505
508
505
505
510
511
509
510
515
511
507
507
509
502
499
503
506
502
501
506
508
504
504
509
509
504
505
511
514
518
527
539
538
528
514
503
495
499
507
511
507
506
512
514
508
509
515
514
511
513
518
515
511
513
518
515
513
517
522
518
518
523
526
523
525
532
535
532
535
541
541
538
540
544
539
534
535
537
529
522
522
520
511
506
509
508
502
500
502
500
495
496
502
500
497
498
502
499
497
501
506
501
499
503
504
498
496
501
503
498
497
502
501
497
498
503
499
497
500
503
497
494
497
500
495
494
499
500
496
496
501
500
496
497
502
501
497
500
504
500
498
501
504
499
497
502
505
502
503
509
509
505
506
513
513
508
508
510
505
500
502
506
500
497
499
502
497
496
502
503
498
498
504
509
511
518
531
535
530
519
505
491
491
499
507
504
502
506
509
505
505
511
512
507
507
513
513
508
510
516
514
510
513
518
515
515
520
525
522
523
529
533
530
533
540
542
538
540
545
543
539
540
541
533
526
524
523
515
510
510
509
502
500
503
503
498
498
503
503
500
502
507
505
501
503
507
503
501
505
507
503
503
508
510
505
505
511
510
505
506
510
509
505
507
511
507
502
505
509
505
502
505
507
503
503
507
505
500
500
506
505
501
501
505
503
501
504
510
507
505
509
513
509
508
511
511
506
503
507
505
499
501
506
505
501
504
509
506
503
506
511
506
504
511
520
524
531
542
542
523
504
499
500
501
506
513
510
506
508
513
509
506
509
513
510
509
513
515
511
510
516
516
513
515
521
520
518
522
529
528
528
533
539
537
537
542
545
540
539
544
544
536
533
534
529
520
518
519
513
506
506
508
502
498
500
502
496
495
499
501
497
497
502
502
498
499
504
503
499
502
506
502
499
502
505
501
499
504
507
503
502
506
506
502
503
508
507
503
505
510
507
503
503
507
502
498
501
504
499
497
500
501
496
496
501
501
497
499
507
506
503
505
511
508
505
506
507
501
497
499
501
496
496
501
501
495
496
502
501
496
497
502
501
503
512
524
527
527
525
512
492
485
494
501
500
501
506
506
502
504
510
509
505
508
514
513
510
513
519
515
514
518
522
518
518
523
526
522
524
531
534
532
536
544
544
541
543
548
543
540
542
543
534
528
527
524
514
510
512
509
503
501
503
501
497
498
501
499
496
499
502
498
497
499
502
497
495
500
501
497
497
502
503
499
500
505
503
499
501
505
500
496
498
500
497
496
499
501
496
496
501
501
497
498
502
499
495
495
500
499
497
498
501
497
496
500
503
499
498
501
503
497
498
504
505
501
502
509
508
505
507
510
506
502
503
506
502
500
504
505
501
501
504
504
502
503
508
507
504
509
520
525
530
538
539
518
498
492
498
499
500
504
505
501
501
506
506
502
504
509
507
503
507
512
512
512
518
522
519
518
523
525
522
522
528
530
529
532
538
539
538
541
546
545
542
544
547
540
535
533
530
521
516
515
513
506
504
505
502
498
497
501
498
495
496
498
494
492
494
496
492
490
493
494
492
493
498
497
493
493
496
495
493
494
496
495
494
495
497
496
495
498
499
497
498
500
499
496
496
498
497
496
496
499
499
496
498
499
497
496
497
498
498
498
500
502
502
503
504
505
505
507
508
508
507
507
508
507
507
508
508
508
507
507
507
506
506
507
506
504
505
508
514
521
531
540
544
537
519
504
498
502
508
513
514
514
514
514
513
513
514
513
513
514
516
517
517
518
520
521
520
521
524
525
526
527
529
531
534
538
541
543
543
544
545
547
548
548
548
546
543
540
535
530
525
520
514
511
508
505
503
502
502
501
501
500
499
497
498
497
496
496
495
496
497
497
496
497
497
499
501
505
508
509
510
510
511
513
514
514
515
516
515
515
514
514
513
512
511
511
511
512
513
513
512
512
511
510
509
510
511
511
510
510
510
511
513
514
514
514
515
516
517
518
516
514
513
511
510
510
509
508
507
508
508
508
509
509
509
509
509
509
514
521
528
535
540
537
521
504
494
497
503
507
510
509
509
510
511
512
512
513
514
516
517
517
519
520
521
520
521
524
525
525
525
528
530
532
533
536
538
539
541
542
544
546
547
547
546
546
545
542
539
534
529
524
520
515
511
507
505
504
504
503
501
499
498
499
499
499
500
498
498
499
499
499
499
499
500
499
499
499
500
500
500
501
500
500
499
498
498
498
498
498
498
498
500
500
499
499
499
499
499
499
499
500
500
500
500
500
501
501
501
502
502
504
506
508
509
508
508
507
507
509
508
507
505
504
504
505
505
505
504
505
506
506
506
506
505
506
507
514
522
529
536
539
535
521
504
496
499
506
509
510
511
510
510
511
510
509
510
511
512
512
512
513
514
515
515
515
515
517
520
522
522
523
526
529
531
533
535
538
540
541
542
544
544
543
542
540
537
533
529
522
517
513
509
504
502
500
498
499
499
497
497
497
497
498
497
496
497
499
500
500
498
497
498
499
499
500
500
501
501
501
501
501
500
499
499
499
498
499
499
498
498
498
498
498
498
495
494
496
498
498
497
498
498
498
499
500
500
500
499
499
498
498
500
501
502
502
502
502
502
503
504
504
504
505
504
502
500
498
497
497
496
496
496
495
495
496
495
494
494
495
497
500
508
515
524
529
526
508
487
479
489
498
499
499
494
512
518
502
468
467
498
524
533
518
506
509
514
512
510
513
515
517
510
515
527
526
525
525
534
536
543
548
551
557
553
554
560
557
558
556
554
551
542
535
531
527
529
532
527
520
517
516
519
519
517
517
517
512
511
517
516
516
518
516
517
517
516
509
516
523
521
516
515
515
514
512
514
516
518
518
517
514
512
520
518
511
521
520
514
512
514
516
517
516
515
514
514
515
515
513
513
510
513
515
515
513
514
516
514
512
514
517
517
518
517
514
512
512
512
512
510
506
505
506
509
509
507
505
506
509
510
511
515
523
532
539
539
528
510
495
493
496
499
503
510
513
509
506
506
508
510
509
510
510
511
510
509
511
512
508
513
520
521
520
519
520
525
527
527
528
530
533
534
536
538
537
536
535
535
534
532
525
517
516
518
514
506
500
497
496
494
491
489
488
487
488
488
484
483
486
487
484
487
488
487
490
490
488
487
487
487
486
487
488
489
487
485
483
487
489
487
488
488
487
486
487
487
488
491
492
491
492
494
492
493
497
498
495
491
491
492
493
494
494
493
493
494
494
493
492
492
492
492
492
494
501
511
521
528
530
522
505
489
485
490
495
500
502
501
501
503
504
504
505
506
507
507
507
508
509
510
511
512
513
515
517
520
521
522
524
526
528
531
535
538
540
542
543
543
544
544
542
541
539
535
530
525
521
517
513
509
506
504
503
502
501
500
500
499
499
499
499
499
499
498
497
499
501
501
501
502
504
505
505
504
505
505
506
505
504
504
504
504
504
504
503
503
504
504
505
505
505
505
505
505
506
507
509
509
509
512
514
514
514
513
513
511
507
504
503
501
500
503
504
502
501
501
502
502
506
510
511
513
519
526
533
541
545
541
526
511
507
512
517
521
520
519
520
521
521
521
522
521
521
521
521
522
522
523
524
525
525
525
526
527
528
529
531
532
534
535
536
537
539
541
541
542
542
541
540
538
534
530
526
520
514
509
502
498
495
493
491
489
488
487
486
485
484
483
483
483
484
484
484
485
486
485
484
484
484
484
484
484
484
485
485
486
486
486
487
487
488
489
489
489
488
487
487
488
489
489
490
490
489
488
489
490
491
493
495
496
497
496
497
497
498
499
499
499
499
498
498
497
497
497
497
497
496
496
496
496
495
496
497
500
506
514
524
531
534
526
509
494
491
498
503
506
506
507
507
507
508
508
509
510
512
512
512
511
512
513
514
514
516
517
518
520
521
521
523
526
528
531
533
535
537
539
540
541
542
541
540
538
535
530
524
520
515
511
508
503
500
497
496
495
494
494
496
497
497
497
498
499
498
499
499
498
498
500
500
500
500
502
502
501
500
501
501
500
501
501
501
501
501
501
501
500
500
499
499
499
500
500
500
500
502
503
505
506
507
508
509
509
511
511
507
504
504
503
502
503
503
502
501
501
502
502
502
503
503
503
503
504
508
517
526
534
535
526
510
496
494
498
503
506
507
507
508
508
508
507
507
507
507
509
510
510
510
512
513
514
514
515
518
519
520
521
525
527
528
530
532
534
536
537
539
539
540
541
540
537
533
528
524
520
515
511
507
503
501
498
496
494
494
494
493
493
494
495
496
497
498
497
497
498
499
499
499
499
499
499
499
500
502
501
501
502
502
502
502
503
503
503
503
503
504
503
503
503
502
502
503
505
505
505
507
508
509
510
512
512
512
514
513
511
509
508
508
508
507
508
508
508
506
506
506
507
507
508
508
508
510
517
525
533
539
539
528
510
498
499
503
508
511
514
514
515
516
516
517
517
518
517
517
517
518
519
520
522
523
523
525
526
528
529
530
533
535
537
539
541
542
543
544
546
548
549
549
549
546
542
536
531
527
523
517
513
508
505
503
502
501
500
499
499
498
498
499
499
499
499
499
500
500
500
501
501
502
503
504
503
503
504
503
503
503
502
502
501
500
499
498
496
496
496
497
497
499
500
500
500
501
502
501
500
501
502
502
502
501
501
502
502
502
502
503
503
504
504
505
507
507
507
507
508
509
508
509
508
506
503
502
502
502
502
502
502
503
503
502
502
502
502
503
503
503
507
515
524
532
538
535
519
501
492
495
501
505
507
507
507
507
508
509
508
509
511
511
512
513
514
514
516
516
517
518
520
521
523
525
526
528
530
532
534
537
539
541
542
543
545
545
545
544
541
538
534
529
524
520
516
512
508
505
503
501
500
499
499
499
499
499
498
499
499
499
499
499
499
500
501
500
498
499
500
500
500
500
501
502
502
503
503
503
503
503
503
502
503
504
504
505
505
504
503
502
503
503
504
504
504
504
504
504
504
504
505
506
508
509
509
510
511
511
510
511
510
507
505
505
505
505
504
503
504
504
504
504
504
503
504
504
505
507
514
523
531
536
535
523
505
493
493
497
501
504
507
508
508
509
510
511
511
511
511
511
512
513
514
514
514
515
515
516
517
519
521
522
523
527
529
530
532
535
536
537
539
541
541
541
540
538
535
532
527
522
517
513
509
506
504
502
500
499
499
499
499
498
498
498
498
498
499
501
501
500
500
500
499
499
501
502
503
502
502
502
502
502
502
502
501
500
500
500
501
501
503
505
505
506
508
509
510
509
510
509
507
506
505
505
504
503
502
501
500
500
500
499
499
500
500
500
500
503
509
517
525
531
533
523
506
493
491
496
501
503
504
505
507
507
507
508
509
510
512
512
513
514
514
515
515
516
516
517
519
521
523
526
528
529
531
534
536
538
540
541
543
544
544
544
544
543
540
535
530
524
520
517
513
508
505
502
500
499
500
499
498
499
499
499
498
498
499
498
498
498
498
499
498
499
499
500
500
501
500
500
501
501
501
500
499
499
498
498
498
497
496
496
497
499
500
499
499
499
499
500
501
502
503
504
506
507
506
507
508
507
505
503
502
500
499
499
498
497
496
497
498
498
497
497
497
497
498
502
508
513
520
527
528
519
502
491
491
496
500
503
504
505
506
506
506
507
507
506
506
506
507
509
510
511
512
513
513
514
515
516
518
520
522
524
527
529
532
535
537
539
540
541
542
542
541
538
534
530
525
520
516
510
505
501
500
498
496
495
495
494
494
494
495
494
494
496
497
498
498
498
498
498
499
500
499
498
499
501
501
500
501
500
501
502
503
503
503
503
503
504
505
504
505
504
503
503
502
501
500
500
502
502
501
503
506
507
506
506
507
507
507
507
507
506
504
503
504
503
502
502
502
501
502
502
502
502
503
503
503
507
514
521
529
536
535
522
503
494
497
502
506
509
511
511
511
512
512
511
510
511
513
513
514
514
513
514
516
518
517
516
517
520
523
524
525
528
532
534
537
539
540
542
544
544
544
543
542
540
536
533
529
524
519
515
512
509
506
505
503
502
501
501
500
498
498
498
500
500
500
501
502
501
502
503
503
504
505
506
506
504
505
506
506
504
505
505
504
504
504
504
504
505
507
507
505
505
504
503
503
502
503
503
502
502
504
505
506
506
506
505
507
508
509
509
507
506
505
504
503
503
502
502
501
500
500
499
499
499
499
499
500
501
504
511
520
528
530
527
513
496
486
489
496
501
503
503
504
504
505
506
506
505
505
508
509
509
510
512
513
514
515
516
517
518
520
520
521
522
525
527
529
531
535
537
538
539
541
541
541
539
537
534
529
524
519
514
510
508
505
503
501
501
501
501
500
499
498
499
498
498
498
500
501
502
501
501
502
503
503
503
503
504
504
504
504
505
505
504
504
503
502
502
503
502
502
504
505
505
504
504
505
506
506
506
506
505
505
505
506
506
507
508
508
509
510
510
510
509
510
510
510
508
507
506
505
505
505
504
503
502
502
501
500
501
502
503
503
504
507
514
520
528
536
540
532
514
500
498
503
509
512
512
512
512
512
511
513
514
513
513
514
516
516
517
518
519
519
520
521
522
522
522
523
524
526
529
531
534
536
540
542
544
545
547
547
546
544
542
538
533
528
523
518
513
509
506
504
501
500
500
500
499
500
500
500
501
501
501
501
502
504
505
504
503
503
503
502
503
502
502
502
503
503
503
502
502
501
501
502
502
502
503
502
502
501
502
503
503
503
502
501
501
501
501
501
502
504
503
504
504
504
504
505
505
504
504
505
505
504
505
506
507
507
508
509
510
511
512
512
510
509
508
506
504
502
502
502
501
501
501
501
500
501
502
502
502
502
503
508
515
525
534
537
529
511
497
495
501
507
509
509
510
510
511
511
512
512
513
513
513
514
514
514
516
517
517
518
519
521
521
522
524
526
528
530
533
535
536
539
541
542
543
544
543
542
541
539
535
531
526
520
515
510
506
503
499
496
495
493
492
491
492
492
493
493
494
494
493
493
494
495
496
495
495
495
495
496
495
496
497
499
499
498
497
497
497
497
497
498
498
498
497
497
497
498
498
499
499
498
499
500
500
500
500
499
497
496
497
498
498
498
497
497
497
498
498
499
499
499
499
499
499
501
504
505
504
505
507
508
509
508
507
506
504
503
503
504
505
504
503
502
502
501
500
499
500
500
500
500
504
511
520
529
535
534
519
501
491
494
499
504
507
507
506
507
509
510
510
511
512
512
512
513
514
514
515
516
517
517
518
519
520
521
522
524
526
526
528
530
534
537
540
543
544
545
546
545
542
539
536
531
525
519
515
512
508
505
502
500
499
499
499
498
499
500
501
501
501
501
501
500
501
501
503
502
502
502
501
501
501
500
499
499
499
500
499
499
499
499
499
498
499
498
499
500
500
500
500
500
499
499
499
501
502
500
499
499
500
500
499
499
500
500
500
500
501
501
501
502
503
504
507
509
509
510
511
511
513
513
513
511
509
509
509
507
506
506
506
506
506
507
507
506
506
505
504
506
510
518
526
533
537
533
518
501
494
497
501
504
507
508
508
509
512
513
513
511
511
512
512
511
513
514
515
516
518
518
518
520
521
521
523
527
529
530
532
536
538
541
543
546
547
546
546
546
545
542
538
534
528
522
519
517
513
509
508
507
505
505
505
505
505
505
506
506
505
505
506
505
504
504
505
505
504
504
505
504
503
503
503
504
504
505
505
504
504
505
505
504
504
503
504
503
503
502
502
503
503
504
505
505
505
505
504
504
504
503
502
502
503
503
504
505
505
505
506
506
506
506
506
507
507
508
509
510
511
511
511
513
514
514
514
514
513
510
509
508
508
509
509
508
507
507
507
508
507
508
507
506
505
510
517
523
530
534
532
517
501
494
497
503
508
509
510
509
510
511
511
511
512
513
514
513
513
513
514
516
517
519
520
520
521
521
522
524
526
528
529
531
534
537
538
539
541
542
544
544
542
539
535
531
527
522
517
513
508
503
500
498
496
494
492
491
491
489
489
489
489
490
491
490
491
490
489
490
490
491
492
492
492
493
495
495
495
495
496
495
493
492
492
492
493
493
493
493
492
492
492
492
491
491
492
492
493
494
494
494
493
495
496
495
496
496
496
496
495
495
494
495
496
497
498
498
500
501
503
504
505
506
506
506
506
506
505
503
501
500
499
499
500
500
500
501
502
502
503
504
504
503
503
506
512
520
529
537
539
529
511
497
496
502
508
509
509
509
510
510
510
511
512
511
512
513
513
513
514
516
516
516
517
518
519
519
521
523
524
526
528
531
533
534
536
539
541
542
543
543
543
541
538
534
528
523
518
514
511
508
507
505
502
499
499
498
496
496
495
495
494
495
496
495
494
494
494
494
494
495
495
495
495
495
495
495
496
497
498
498
498
498
497
498
500
501
500
499
500
500
501
502
503
502
502
502
502
502
502
501
501
502
502
503
503
503
503
504
504
503
502
503
504
505
506
507
508
508
508
509
509
509
510
510
509
507
506
505
503
504
505
505
503
503
504
505
504
503
504
504
505
508
515
523
531
538
538
525
506
495
497
503
508
511
512
512
513
514
515
515
515
517
518
516
517
518
519
518
519
520
520
519
520
521
522
524
526
529
530
532
535
537
539
540
542
544
544
544
543
541
538
534
530
525
519
514
509
506
503
502
500
498
497
497
496
496
497
497
496
496
497
497
497
497
497
497
496
497
496
496
496
497
497
498
499
500
500
500
499
499
500
500
499
498
498
498
498
498
499
499
500
501
501
501
502
503
503
503
502
501
502
502
502
503
503
504
505
506
505
504
505
506
507
509
510
509
508
509
510
511
510
511
510
508
508
509
509
509
509
510
511
511
510
509
509
509
509
510
513
521
532
540
544
539
524
505
495
497
503
507
508
510
511
510
510
511
512
513
513
514
515
515
516
517
517
517
517
518
519
521
522
524
526
528
530
532
533
536
539
541
542
543
544
546
547
546
543
540
537
532
527
524
519
514
510
508
506
505
503
503
503
503
504
504
504
504
504
503
503
503
503
504
503
504
505
504
504
504
505
505
506
507
507
507
506
505
505
505
505
505
507
507
507
508
508
508
509
509
508
507
508
510
509
509
509
510
509
509
509
508
506
506
506
505
506
507
507
507
508
509
510
509
510
511
510
508
507
508
510
511
511
510
509
507
506
506
505
505
506
505
504
504
505
505
505
504
504
505
509
516
523
531
537
537
527
509
495
494
498
502
505
507
507
507
508
509
510
509
510
512
513
513
513
513
513
513
514
515
515
515
518
520
521
524
526
528
529
532
536
538
539
540
542
543
544
543
541
538
535
531
525
520
515
510
507
503
501
499
497
495
494
494
494
494
495
497
497
497
498
499
499
500
501
501
500
500
501
502
502
502
501
502
501
501
501
500
501
501
501
502
502
501
501
501
502
502
501
500
500
501
500
500
501
501
500
499
501
503
503
503
505
506
506
507
507
506
505
504
503
502
502
502
502
503
504
506
508
509
509
509
510
511
511
511
510
508
507
507
506
505
505
506
505
503
503
503
503
503
503
503
503
503
507
514
523
532
539
538
524
505
494
493
498
501
503
504
505
506
508
510
510
510
509
510
511
511
512
513
514
515
516
517
519
520
521
522
523
525
527
530
533
536
537
538
539
541
542
544
545
544
541
539
536
532
527
522
516
512
508
505
503
500
497
497
497
495
494
493
492
491
492
493
494
494
493
495
497
496
496
497
498
498
498
498
499
500
502
502
503
503
504
504
503
503
504
504
503
503
503
503
501
502
502
502
503
503
502
502
501
502
502
502
503
503
503
503
504
505
504
503
504
504
504
503
504
504
505
506
507
507
508
508
509
509
510
512
514
513
513
513
511
508
506
507
507
505
504
504
505
505
505
506
506
505
504
507
515
524
533
538
536
522
504
493
493
498
504
507
508
507
509
511
511
510
511
513
512
511
511
513
514
516
517
518
519
520
521
522
523
526
527
528
530
532
535
537
538
539
540
540
541
540
539
538
537
535
532
528
522
519
514
510
508
505
503
502
501
500
499
497
497
496
495
495
495
496
495
495
495
495
496
497
498
499
498
497
497
497
498
499
499
499
499
500
500
499
499
499
498
498
498
499
500
500
500
499
498
497
498
498
498
498
499
498
496
496
496
496
496
496
496
497
498
498
499
499
499
500
500
501
503
503
502
501
502
503
503
503
502
502
501
500
500
500
500
500
500
499
499
500
500
501
501
501
504
510
519
529
537
537
526
507
491
490
495
501
505
506
507
509
509
508
508
509
510
511
512
513
512
511
512
515
516
517
518
520
521
523
526
528
530
531
534
535
536
538
539
540
541
543
544
543
541
540
537
532
527
523
518
513
509
507
507
505
504
504
504
502
501
501
500
499
499
499
498
498
499
499
499
500
501
502
502
503
503
504
503
502
501
500
500
502
503
503
501
501
501
501
500
500
500
500
500
501
501
501
501
502
503
504
504
504
503
502
502
504
503
503
504
505
504
504
505
505
504
504
506
506
506
507
508
509
509
509
509
510
511
511
510
509
508
508
508
507
507
507
507
508
509
511
511
510
509
510
512
517
524
531
537
541
540
526
510
500
503
509
514
515
515
514
515
516
516
517
517
517
517
518
520
521
521
522
522
524
524
525
526
527
528
528
530
533
535
536
538
541
544
544
545
547
547
547
546
545
542
538
534
529
524
520
516
512
509
507
506
505
504
503
503
501
499
499
498
497
498
500
500
500
499
499
498
498
497
498
499
500
500
499
500
500
500
499
499
501
502
501
499
500
499
500
501
502
503
502
501
502
502
502
500
500
501
501
502
503
505
505
505
506
506
506
505
505
504
504
506
507
507
506
505
504
505
505
505
504
505
506
507
507
507
506
507
509
509
509
509
508
507
507
505
504
505
505
505
504
504
505
505
503
503
503
504
506
511
519
528
537
541
533
515
499
496
502
508
511
512
513
513
513
513
514
514
514
515
516
516
516
516
516
517
518
519
521
521
523
524
525
527
528
529
530
534
538
540
542
544
546
547
546
545
544
541
537
532
527
522
518
515
512
509
507
505
502
500
500
499
498
497
496
496
497
497
497
498
498
498
499
500
500
500
500
501
501
501
501
501
501
502
502
501
501
501
501
501
502
503
502
502
501
500
500
501
502
502
503
503
503
504
504
503
503
503
504
504
504
504
504
504
504
504
504
503
504
504
504
504
505
505
505
505
506
507
507
506
506
506
507
508
508
508
508
507
507
506
505
505
503
502
501
502
503
502
501
500
499
499
502
511
520
529
535
537
524
505
493
494
499
502
504
504
503
503
504
504
504
505
506
507
508
509
511
512
513
514
516
518
518
519
520
522
523
525
527
528
528
531
534
536
539
540
542
544
544
544
543
539
535
531
526
521
516
512
508
503
501
499
497
495
494
493
492
492
493
492
492
492
493
493
492
492
493
494
493
494
493
493
494
496
497
496
497
498
498
499
500
501
501
500
500
499
498
498
498
498
498
497
499
499
500
501
502
502
501
501
502
501
500
499
499
499
498
498
498
498
499
501
501
501
502
503
503
504
505
506
506
506
505
505
504
503
502
501
500
501
501
502
501
500
500
500
501
501
502
504
508
516
525
533
537
534
519
500
491
495
500
503
504
505
506
507
507
509
510
511
512
513
514
514
516
517
517
517
518
518
519
519
520
521
522
523
525
526
527
529
532
534
536
537
538
538
538
536
534
532
527
523
518
514
510
507
503
500
499
499
497
496
497
497
497
496
496
498
498
499
499
499
499
499
499
500
500
500
501
502
502
501
501
501
499
498
499
499
499
500
501
500
500
501
501
500
500
502
502
502
501
502
502
502
502
502
501
500
500
501
502
503
504
505
505
505
506
507
509
510
510
511
512
512
512
511
510
509
508
506
504
504
505
505
505
505
506
506
506
507
509
509
509
513
520
527
533
540
542
532
514
501
500
504
510
513
513
512
513
514
514
514
515
516
517
517
518
520
520
521
521
521
522
524
525
526
527
529
532
533
534
537
538
541
543
546
548
549
550
550
549
547
544
541
537
531
526
520
515
510
507
503
501
501
501
500
499
499
500
500
499
498
499
498
498
499
499
500
499
499
499
500
499
500
501
502
501
501
500
499
499
500
500
500
500
499
499
499
498
499
499
498
499
500
498
497
499
499
499
499
499
498
498
499
501
501
501
502
503
503
504
505
507
507
507
508
511
513
514
513
512
511
510
509
509
507
506
507
507
507
507
506
504
502
501
501
501
501
506
514
521
531
538
537
521
503
494
496
503
508
511
511
511
510
510
510
510
511
511
511
512
514
514
515
517
517
517
516
517
517
518
519
522
525
527
529
531
533
535
537
539
542
542
542
542
542
540
537
534
528
521
516
511
506
502
499
497
495
493
493
494
494
494
494
494
494
495
496
496
496
495
496
496
495
495
495
494
494
495
495
494
493
494
494
494
494
495
495
494
494
495
494
494
495
497
497
497
496
496
495
495
496
497
498
498
498
497
496
496
497
499
500
501
503
502
502
503
504
505
506
506
507
507
507
507
506
505
504
504
502
501
501
503
503
502
502
503
503
502
503
504
504
504
508
515
522
531
538
539
526
507
495
495
501
504
506
506
506
506
506
506
506
506
506
507
507
507
508
509
510
511
512
512
514
516
517
517
519
522
525
526
529
531
532
534
537
539
540
541
541
540
538
536
533
529
524
519
515
511
507
504
501
499
498
497
497
496
496
496
495
494
494
495
496
496
496
496
496
496
497
498
499
500
501
501
500
500
501
501
500
499
499
499
498
498
499
498
498
498
498
498
498
499
499
499
499
499
499
499
500
501
502
503
503
504
505
504
503
504
505
505
506
506
504
505
506
507
506
505
504
502
501
499
499
499
499
500
500
501
500
500
500
501
501
502
503
505
511
519
527
533
534
526
507
492
491
497
503
505
506
506
505
506
506
507
507
508
509
510
511
511
512
513
513
514
515
515
514
515
517
519
521
523
525
527
529
533
536
539
539
540
541
542
540
538
534
531
528
523
519
515
512
508
505
503
502
501
502
502
503
505
506
506
506
506
505
505
504
504
503
502
503
502
502
502
503
502
503
504
505
505
506
506
506
506
507
506
506
506
507
508
507
505
505
506
505
505
505
504
503
502
503
504
505
506
507
507
507
508
508
508
508
509
510
510
511
512
514
514
512
511
511
509
507
506
506
505
504
505
505
504
504
505
505
505
505
507
510
516
524
531
537
538
527
509
498
499
505
509
510
511
510
510
510
511
513
514
513
514
515
515
515
517
519
520
520
520
521
523
524
526
528
529
531
532
534
536
537
540
542
543
544
545
546
545
544
543
539
535
530
524
518
512
509
506
504
502
500
498
497
497
496
495
493
493
494
494
494
494
495
495
495
495
495
495
495
495
497
498
497
497
498
498
498
498
499
498
499
499
498
498
498
499
499
500
500
501
500
500
499
499
500
500
500
500
499
500
501
500
499
501
502
502
502
502
503
503
506
507
507
507
507
509
511
510
510
509
509
509
509
509
509
508
508
508
507
506
507
508
507
506
506
508
514
522
531
539
542
537
522
505
499
503
508
511
513
514
513
513
513
514
515
515
515
515
516
515
515
514
514
514
516
518
519
520
522
523
524
527
531
533
533
535
537
539
542
544
545
545
544
542
542
539
535
531
527
522
516
512
508
505
504
503
501
500
499
499
498
496
496
497
497
497
497
498
498
498
500
501
501
502
504
504
503
503
502
501
501
500
500
499
498
497
498
499
499
499
499
499
499
499
499
497
496
498
499
499
499
499
499
498
499
499
498
497
498
499
499
499
500
500
500
499
500
501
500
500
501
503
502
502
503
503
503
503
503
502
500
500
500
502
501
500
500
499
499
499
498
497
497
497
497
499
505
514
524
533
537
530
511
495
491
496
502
505
506
506
506
506
506
506
505
506
507
508
509
510
512
513
515
516
516
517
518
518
519
521
522
524
526
529
532
536
538
539
541
543
543
543
543
543
540
537
531
526
521
517
513
509
506
504
502
500
500
500
500
499
498
500
501
501
501
501
500
499
498
498
498
498
498
499
501
501
500
500
500
499
499
499
499
499
499
499
497
497
498
498
497
496
496
497
497
496
496
496
496
496
496
496
496
496
496
497
498
498
498
498
498
498
498
497
497
499
499
500
500
502
504
505
503
503
503
504
504
504
503
501
501
500
500
500
499
499
499
498
498
497
499
499
499
498
499
502
508
517
525
532
533
523
506
494
493
497
501
506
508
508
510
510
511
511
513
514
514
515
515
515
515
517
519
519
519
518
520
521
522
524
527
529
530
531
533
534
536
538
539
540
541
541
541
539
538
535
531
527
522
518
513
509
506
503
501
500
500
500
499
498
498
497
497
498
498
498
497
496
497
497
498
498
498
498
499
500
500
500
500
501
501
500
500
500
500
499
499
500
500
500
500
500
500
499
498
498
499
498
499
498
497
496
496
496
497
497
496
496
497
498
499
500
501
502
503
502
503
505
504
503
501
500
499
499
499
500
500
499
499
501
501
501
500
501
501
503
507
515
523
529
535
534
523
506
494
494
499
503
507
507
507
508
510
511
512
513
513
513
512
513
514
514
514
516
517
518
519
521
524
526
528
529
530
532
534
537
539
541
543
544
544
545
547
548
545
541
537
534
529
524
520
515
510
507
505
503
501
501
501
502
500
499
500
502
503
503
502
501
501
503
504
504
505
505
505
504
504
503
503
503
502
502
503
502
502
502
501
502
502
503
502
503
504
504
503
503
504
504
504
504
506
506
506
506
506
505
504
505
506
506
506
507
508
509
509
510
510
510
511
511
511
511
511
509
508
507
508
508
509
508
508
508
507
506
506
506
506
507
507
509
515
522
529
535
538
530
514
499
496
502
508
510
510
510
509
509
510
511
512
512
513
513
513
513
514
515
516
517
519
520
521
522
524
525
527
529
531
534
535
537
540
543
545
546
546
546
546
544
541
536
531
526
522
518
514
511
508
505
502
501
499
498
499
498
497
497
498
498
498
497
499
500
501
501
501
501
502
502
501
501
500
500
501
502
501
502
502
501
500
500
501
500
499
501
501
501
499
499
500
500
500
499
498
497
498
498
497
497
497
498
498
498
500
501
503
505
504
504
505
507
508
508
506
504
504
502
501
500
500
500
498
497
498
497
497
497
498
498
499
502
507
514
522
530
533
524
506
492
490
494
499
503
505
505
506
507
507
507
507
506
507
508
510
511
512
512
513
514
513
514
515
517
520
523
525
528
529
532
534
535
537
539
540
540
541
542
541
539
537
534
530
524
519
516
511
506
503
502
500
499
499
498
497
496
497
498
499
499
499
499
500
500
501
501
502
501
500
499
498
498
497
496
495
497
497
497
495
495
495
495
496
496
496
495
496
496
496
496
497
498
498
498
498
499
500
499
500
500
499
500
501
502
503
505
507
507
507
508
508
505
503
502
502
501
500
501
501
500
500
501
501
500
499
499
499
500
506
516
524
530
532
526
509
493
488
492
497
499
501
501
501
502
505
506
508
510
511
511
511
512
513
513
514
515
515
516
516
518
519
521
521
524
526
527
529
531
534
536
539
541
541
541
541
540
538
536
532
527
522
516
512
508
504
502
500
498
496
494
494
493
493
493
494
493
494
495
495
495
496
497
497
498
498
498
499
499
499
500
501
501
501
502
502
502
503
503
503
504
504
504
503
503
503
503
502
502
503
503
502
503
502
501
502
502
502
502
501
502
501
501
503
506
508
508
509
510
511
511
512
513
514
511
509
508
507
506
506
506
505
504
505
505
505
506
508
508
508
509
515
522
529
536
541
541
531
515
504
505
510
515
516
516
515
515
516
517
518
520
520
520
520
520
521
521
521
523
524
524
524
525
526
527
529
532
533
534
537
539
540
543
545
548
550
551
551
551
549
546
543
538
533
529
524
519
515
511
509
507
505
503
502
502
502
501
502
502
503
504
503
501
502
503
504
504
504
504
505
504
504
504
505
505
505
505
505
506
506
505
504
504
503
502
502
502
502
502
502
502
501
501
500
500
500
500
500
500
500
501
501
501
501
502
502
502
502
503
505
507
507
507
509
510
510
510
509
507
505
505
505
505
504
504
504
503
503
504
505
506
505
505
505
505
509
516
525
536
542
542
526
506
494
496
501
505
506
506
507
507
508
508
509
509
510
509
509
510
512
513
513
514
515
515
516
518
519
521
525
527
529
530
532
535
538
540
542
545
547
547
548
548
545
543
539
534
528
522
518
515
511
508
505
502
499
498
498
495
495
495
495
496
495
495
494
494
494
494
494
494
495
495
495
495
495
496
497
497
498
500
499
498
498
497
497
497
496
497
497
494
494
494
495
494
494
494
493
494
494
494
494
494
495
494
494
495
494
494
496
497
497
497
498
500
502
502
501
500
498
497
498
499
498
497
498
499
498
498
498
498
498
497
499
503
510
518
528
532
528
512
495
487
488
492
496
498
498
498
499
499
499
500
502
504
505
506
507
507
508
509
509
509
509
511
512
512
513
515
517
519
521
523
525
527
530
532
533
533
533
532
530
529
526
523
518
514
510
506
503
500
499
496
494
493
492
491
489
489
489
490
490
490
490
490
490
491
491
491
493
493
493
493
493
495
495
495
495
495
494
494
494
494
493
494
496
497
498
498
498
499
499
501
503
504
504
506
507
508
509
509
509
509
508
508
506
505
505
506
505
504
503
504
503
502
501
501
502
503
504
505
507
515
523
531
536
537
528
510
496
494
499
504
506
507
507
507
507
509
509
509
508
508
510
511
511
513
514
515
515
516
518
520
521
523
524
526
528
531
532
534
536
539
542
544
544
545
545
545
543
540
536
531
526
522
517
513
510
508
505
503
502
501
500
500
499
498
497
498
499
500
501
501
501
501
502
503
503
503
504
504
504
505
505
505
504
504
505
505
505
505
505
506
505
505
504
504
505
505
504
505
504
505
506
508
507
507
506
505
504
504
504
503
503
504
504
504
506
508
509
510
510
511
511
512
513
514
513
512
510
510
510
510
509
509
509
509
509
508
507
508
508
507
508
512
520
526
532
539
539
526
508
497
497
502
507
509
510
511
512
513
513
514
515
516
515
515
517
517
518
519
520
523
525
525
526
526
528
530
532
533
535
538
541
544
546
548
550
551
551
551
551
548
544
540
536
531
527
523
517
510
507
504
502
500
499
497
495
494
494
495
494
495
497
498
499
499
499
500
499
501
503
502
501
503
504
504
504
504
505
505
505
505
505
505
505
504
504
504
504
505
504
503
502
503
502
502
503
503
503
503
503
503
502
503
503
504
504
505
506
507
507
508
509
508
507
507
508
507
505
502
501
501
501
502
502
502
501
502
501
501
502
503
503
505
509
518
525
532
536
533
516
499
493
496
501
505
507
507
506
507
508
510
510
510
510
511
512
512
513
513
514
515
516
517
517
518
520
523
525
527
528
530
532
534
536
538
540
541
542
542
542
542
540
536
531
526
520
516
513
510
507
505
504
503
501
500
499
498
498
499
499
498
497
497
497
495
494
495
497
497
498
498
498
499
499
498
497
498
499
498
498
497
498
497
496
496
496
496
496
496
497
498
498
498
499
498
497
496
494
493
494
494
496
496
497
497
499
500
501
501
502
503
503
504
503
501
500
499
498
498
498
499
498
497
498
498
498
499
499
499
499
500
505
512
521
529
532
528
510
494
486
488
492
496
499
499
499
500
501
502
502
502
502
503
504
506
507
508
509
511
511
512
513
514
516
517
518
521
523
525
527
528
530
532
535
537
537
537
538
537
534
531
529
524
519
515
512
509
507
505
503
502
499
498
499
498
498
498
499
499
500
500
500
499
499
500
499
500
500
500
499
498
499
499
500
501
502
503
501
501
502
502
503
502
502
503
503
504
504
503
502
503
504
504
504
506
508
508
508
509
510
511
511
511
512
512
510
507
504
502
502
501
499
499
499
499
499
500
500
499
500
500
501
504
510
517
525
532
534
526
510
496
494
499
505
508
509
510
510
510
510
511
511
511
510
511
513
514
515
516
517
518
519
520
520
519
521
523
524
525
527
530
532
535
538
539
541
542
543
543
541
540
539
535
530
526
522
517
514
512
509
507
505
504
504
503
503
502
502
501
502
502
502
501
502
502
500
499
500
500
499
500
500
501
501
502
503
503
504
504
505
506
507
508
508
507
507
507
508
508
507
506
507
507
507
508
508
508
509
509
509
509
509
509
510
510
509
508
508
509
509
508
508
509
510
510
510
510
510
510
510
510
509
508
506
506
506
505
505
505
504
504
505
506
507
506
505
506
508
513
521
530
539
544
540
524
507
500
503
507
509
509
509
510
509
511
511
512
511
512
513
515
516
517
518
518
517
518
518
518
518
519
521
523
525
527
529
531
533
535
538
541
544
546
546
545
543
542
540
536
531
526
521
516
511
507
505
503
502
501
500
500
500
500
499
499
500
500
500
501
501
500
501
501
500
500
501
503
504
503
503
502
503
503
505
505
505
503
503
503
503
502
502
502
502
502
501
501
501
502
502
504
505
505
505
506
508
509
510
511
511
510
507
504
503
504
503
502
500
499
500
499
498
498
498
498
499
499
501
507
516
524
530
529
518
501
486
484
490
495
498
499
500
501
501
502
503
503
503
504
504
504
503
505
506
505
506
508
510
512
514
516
517
519
521
523
525
527
530
534
535
535
536
536
535
533
531
527
523
520
516
511
507
504
503
500
498
496
495
494
494
495
495
496
496
497
496
496
495
496
496
496
497
498
499
500
501
502
502
501
501
502
502
500
501
502
502
502
501
501
501
502
503
503
504
506
507
508
509
511
513
513
511
509
507
506
505
506
506
505
503
503
503
503
503
504
505
504
505
506
510
518
524
529
530
527
516
501
494
497
503
507
508
508
509
511
511
511
511
511
510
509
510
510
510
510
512
513
513
515
518
519
520
521
524
525
527
530
532
534
537
541
544
544
544
545
545
543
542
538
533
529
524
519
514
509
506
504
501
500
500
500
500
500
500
499
499
499
499
499
500
500
501
501
502
504
506
507
507
506
505
505
503
504
503
502
502
502
500
500
500
501
500
500
500
500
500
502
502
502
503
504
505
506
506
506
506
503
500
499
500
501
500
500
498
497
497
497
498
497
497
497
498
499
506
514
519
524
526
518
500
486
485
492
498
502
505
506
505
506
507
508
508
509
510
511
513
515
516
516
516
517
518
519
520
521
523
526
529
532
534
536
540
544
546
548
550
551
552
551
552
550
546
542
537
531
525
521
517
513
509
507
507
505
502
501
501
500
500
501
501
500
499
499
499
500
500
500
500
500
500
502
502
501
501
502
503
504
506
508
507
506
505
507
507
507
508
508
507
507
509
509
509
507
507
505
500
499
499
499
498
498
498
498
498
499
499
499
499
499
499
498
500
508
517
524
528
528
517
499
486
484
490
496
500
502
501
500
502
502
501
502
505
505
504
506
509
510
509
510
512
512
511
513
514
514
515
518
520
521
522
527
529
529
530
533
533
531
532
532
530
524
521
517
512
507
506
502
498
496
496
494
491
491
493
493
492
494
497
496
494
495
497
496
495
497
499
498
497
498
499
497
497
498
498
499
500
501
501
500
499
500
500
501
502
505
505
505
507
507
506
506
506
504
501
499
499
498
496
496
497
497
498
498
499
498
497
498
500
500
504
512
518
524
526
524
511
496
488
494
501
506
507
508
508
508
510
511
510
512
513
514
513
515
518
519
519
518
520
521
522
523
525
525
526
529
532
534
536
540
544
546
547
548
548
548
546
544
540
536
532
529
525
520
515
512
509
505
503
502
501
500
500
500
499
499
499
498
496
496
496
496
496
496
497
498
498
498
500
500
500
501
502
502
502
503
503
504
503
503
501
500
501
503
503
503
502
503
503
504
505
506
507
506
507
508
508
508
509
508
506
504
503
502
501
502
503
502
501
502
503
503
504
505
505
506
511
519
526
530
533
531
515
499
493
498
506
510
511
512
514
515
515
516
516
515
516
517
516
514
516
518
518
518
518
520
520
522
522
524
526
528
530
532
534
539
542
544
544
545
546
547
546
545
542
538
533
529
524
519
514
510
508
505
504
503
501
500
499
499
499
498
499
499
500
500
501
502
501
501
502
503
501
500
500
499
499
497
496
496
497
498
498
497
496
496
497
496
496
497
497
496
496
495
495
495
495
496
497
498
500
501
501
501
501
502
503
503
502
499
497
498
499
499
500
500
499
498
498
499
500
499
499
500
501
506
515
522
529
531
526
511
494
488
493
499
502
503
503
504
505
505
505
506
506
507
508
509
509
510
511
511
512
513
513
514
516
519
521
523
525
527
529
531
532
533
535
538
540
540
540
540
540
539
535
531
526
520
514
510
506
504
501
497
495
494
494
494
494
495
495
496
496
496
496
496
496
497
497
498
498
499
499
500
500
500
499
499
499
498
498
498
497
497
498
498
498
497
497
498
497
496
498
500
501
501
502
503
504
504
505
504
502
500
500
501
500
500
499
498
498
499
499
499
497
497
497
497
498
503
511
519
524
525
518
502
487
485
491
496
500
502
502
502
502
503
503
502
502
503
503
503
504
505
505
507
508
510
509
512
514
516
518
520
522
524
528
531
533
535
538
541
543
544
543
541
540
536
532
527
522
517
513
510
506
504
502
500
497
496
497
497
498
497
498
497
498
498
499
500
500
500
502
503
502
502
503
503
503
504
505
505
505
505
506
505
504
503
503
504
505
506
506
507
509
511
512
512
512
512
509
507
506
506
505
503
502
502
502
501
501
500
500
501
502
501
503
507
514
520
526
531
528
514
497
490
495
500
504
507
506
506
507
507
508
508
509
510
511
511
511
513
514
515
518
520
521
521
522
524
525
527
529
531
532
535
537
539
540
542
544
544
543
542
541
539
535
530
525
520
514
509
504
501
499
499
498
497
497
498
498
498
498
497
496
495
496
496
496
497
498
499
499
500
500
501
501
502
502
502
501
502
503
503
502
501
501
502
502
502
503
503
503
504
506
507
508
508
509
511
512
513
512
511
508
505
503
502
502
501
500
498
497
498
497
498
498
498
499
500
502
507
513
520
527
528
523
508
493
488
491
499
503
504
505
506
507
507
507
507
508
508
510
512
513
514
516
516
516
515
516
518
518
519
521
524
525
528
531
533
535
537
539
541
543
543
543
542
541
539
535
530
525
522
517
510
506
504
501
499
498
497
497
497
496
496
497
498
499
500
501
502
502
502
501
501
501
501
502
501
501
500
500
500
500
499
499
501
501
500
499
499
500
500
498
498
498
497
497
499
500
502
503
504
503
503
505
506
506
505
504
502
500
499
500
500
499
499
500
500
499
499
500
500
499
501
507
514
521
527
530
524
506
490
486
492
497
501
504
504
504
504
504
505
506
508
507
507
508
508
509
509
511
513
513
514
516
518
518
518
521
523
524
526
529
533
536
537
539
539
539
539
539
537
534
531
526
520
516
513
509
505
502
500
498
497
498
498
498
497
497
497
497
497
499
499
499
500
500
500
499
500
500
500
499
498
498
497
496
497
498
499
500
501
501
499
499
499
498
498
499
500
501
502
505
506
506
506
506
507
504
501
501
501
500
497
497
497
497
497
498
498
497
497
498
497
498
503
511
519
525
528
525
511
495
487
491
497
501
504
505
504
506
507
508
507
507
507
507
507
509
510
509
510
512
513
514
516
518
518
520
523
526
527
527
528
530
532
533
536
537
538
538
539
538
536
532
528
523
517
512
509
506
503
501
501
500
499
499
499
500
499
498
498
498
498
499
500
500
499
499
500
499
500
501
502
501
501
501
501
500
498
498
498
498
499
498
497
496
497
497
497
496
498
499
499
499
500
500
501
503
504
504
505
507
509
510
511
511
510
508
505
503
503
502
501
501
501
500
499
500
500
499
500
504
510
514
516
520
521
513
498
490
491
498
504
507
506
507
509
510
510
510
510
511
511
512
513
513
513
516
517
518
517
518
519
520
523
526
529
531
534
536
537
539
541
541
541
541
541
540
540
538
536
533
528
523
518
515
511
508
506
503
500
498
498
497
497
497
498
498
497
498
499
499
498
498
498
498
500
501
500
499
500
500
500
499
498
498
497
497
498
499
498
498
500
500
498
497
497
498
498
498
498
497
498
499
501
502
501
502
503
504
505
507
506
504
503
502
501
500
499
499
499
498
499
501
501
501
501
501
503
509
516
520
523
524
520
506
491
487
493
501
504
505
506
506
507
507
506
506
506
507
507
508
508
509
510
510
511
512
513
515
517
519
520
520
523
526
528
532
535
538
540
541
542
543
543
542
541
539
534
530
525
520
515
510
507
504
501
501
501
500
498
498
498
497
496
496
498
499
500
502
503
502
503
504
504
504
504
503
502
503
503
503
503
502
502
500
499
498
500
500
498
498
500
501
502
502
501
500
499
500
501
501
503
505
506
505
506
509
510
509
507
506
507
506
506
507
506
505
505
505
505
505
506
506
506
506
510
517
524
530
537
539
534
517
502
498
502
507
510
510
510
511
512
514
515
516
518
519
519
519
520
519
519
520
520
520
521
524
525
525
526
529
531
533
535
537
538
539
540
542
543
543
544
543
542
539
535
531
527
522
519
515
510
506
503
500
499
498
497
495
494
493
493
493
493
494
494
494
495
496
495
494
494
495
495
495
496
497
497
498
499
500
500
499
499
498
498
498
500
500
499
499
500
501
501
503
505
507
508
509
510
510
511
512
511
509
506
505
503
501
500
501
500
500
501
501
501
501
502
503
505
506
511
519
526
533
539
537
522
503
495
498
505
510
512
512
512
514
515
514
512
513
514
515
516
517
518
518
518
520
521
522
524
527
528
529
531
533
534
537
539
541
541
541
543
544
544
542
541
540
537
534
530
525
521
517
513
508
505
503
502
500
498
498
498
497
496
496
496
497
497
498
498
497
497
498
495
494
494
495
495
495
495
495
494
493
493
493
494
493
494
494
494
494
496
496
495
496
498
498
498
499
500
499
497
494
493
492
492
491
491
490
491
492
492
492
493
494
494
494
495
501
510
521
532
539
535
517
499
493
497
504
506
506
505
506
506
506
506
505
505
505
504
504
505
507
509
510
511
511
512
514
516
517
519
522
525
527
529
531
533
534
536
537
537
536
537
536
535
533
531
526
521
516
511
508
505
502
499
497
496
496
496
495
496
498
499
499
499
499
498
498
499
500
501
500
501
502
502
500
500
501
501
500
501
502
503
504
506
507
508
509
511
512
512
510
507
505
503
503
503
502
500
500
501
500
499
498
498
498
498
499
500
505
516
528
537
540
529
507
490
488
493
499
500
501
502
502
502
501
502
503
504
505
505
506
506
507
508
509
510
511
513
514
514
516
519
521
522
524
527
530
533
536
537
536
536
535
535
534
533
531
526
520
515
511
508
505
503
501
500
499
499
499
497
497
498
498
497
497
498
498
499
499
501
501
499
500
502
502
501
502
502
501
500
501
503
503
504
506
507
507
508
508
507
505
504
504
504
504
504
503
502
501
501
501
500
500
501
500
499
502
510
520
528
533
535
523
504
491
491
496
501
504
505
504
504
505
506
506
508
510
511
511
513
515
515
515
515
516
517
517
520
522
523
523
524
526
527
529
533
535
536
536
537
539
538
538
537
534
530
527
524
520
517
513
509
505
502
500
499
499
499
499
499
499
500
502
502
502
502
503
503
504
506
507
506
505
504
504
505
506
508
507
509
511
512
512
511
511
510
507
504
502
501
499
498
499
499
499
499
500
499
499
499
500
500
505
514
525
533
536
528
510
495
492
498
504
506
507
507
507
507
507
509
509
509
511
512
513
514
516
516
516
517
518
519
520
521
523
524
525
526
529
531
533
535
538
541
541
542
542
541
538
535
532
529
524
521
516
512
508
507
505
503
502
501
501
501
502
502
502
501
501
502
502
501
501
501
501
501
502
504
504
503
504
506
507
509
510
510
509
507
504
501
499
500
499
498
496
496
496
495
495
496
496
495
493
494
498
507
520
531
534
524
505
491
487
491
497
499
499
498
500
500
501
501
503
504
503
504
506
506
507
508
509
509
509
511
513
514
515
517
520
522
524
527
529
530
533
535
535
536
536
535
533
529
527
523
518
512
509
505
501
498
496
495
494
494
494
492
492
493
495
494
493
494
495
495
496
498
499
499
500
501
502
503
505
507
506
507
507
507
504
502
501
500
499
498
498
497
496
494
494
493
492
493
493
492
492
500
512
524
531
528
510
492
484
488
494
497
498
498
497
497
497
498
499
500
501
502
503
504
506
508
508
508
508
510
511
513
516
518
520
520
522
524
525
526
528
530
531
531
531
531
529
527
524
521
516
511
506
501
498
496
494
492
490
490
490
489
489
489
487
488
491
492
492
492
493
494
494
494
496
497
498
499
501
501
501
502
503
502
500
497
497
497
495
496
496
496
495
495
495
495
494
495
494
494
496
505
515
525
531
529
514
496
489
494
499
502
504
506
506
506
508
508
508
510
514
514
513
513
515
516
516
517
519
519
520
522
525
526
527
530
532
534
535
537
538
539
539
539
539
537
536
534
531
526
523
520
516
512
510
508
506
503
503
503
503
503
504
504
504
505
507
507
507
507
508
508
508
509
510
510
511
514
514
514
515
515
516
516
516
514
512
509
508
509
509
507
506
506
504
502
502
502
500
501
501
502
505
514
525
535
539
534
519
502
495
498
503
506
506
507
507
507
507
508
508
509
509
511
512
511
511
513
512
512
514
516
516
516
517
519
520
522
525
527
530
532
534
535
536
536
536
535
534
531
528
524
520
515
511
507
504
502
501
499
498
498
498
498
497
497
498
498
498
498
498
499
499
499
499
498
500
500
499
499
498
499
499
498
500
499
498
497
499
500
502
503
505
504
503
505
507
507
506
504
503
501
499
501
500
500
499
499
500
500
499
499
499
498
501
507
515
524
532
535
526
505
491
490
497
503
507
508
508
508
510
511
511
511
512
512
511
511
513
513
514
514
514
514
514
515
517
518
520
522
524
526
529
533
535
537
538
539
538
537
536
535
532
529
525
520
516
510
506
503
501
499
498
497
495
492
492
492
492
492
493
493
491
492
493
492
493
494
494
494
493
494
493
493
493
494
493
493
493
494
492
491
492
493
493
493
494
497
498
498
500
501
502
503
505
504
502
500
500
499
499
500
501
499
499
499
500
499
499
499
500
504
512
520
528
531
524
507
491
484
489
496
500
501
502
504
505
505
507
508
508
508
510
511
512
513
515
516
516
518
521
522
522
523
525
527
529
532
535
536
538
539
539
539
538
539
539
536
532
529
525
522
519
515
510
506
503
501
499
498
497
497
497
497
498
499
499
499
499
498
498
499
500
501
502
503
504
503
503
504
504
503
502
502
503
503
504
505
506
506
506
506
505
504
505
506
507
506
506
508
509
510
509
509
508
506
504
503
502
501
500
499
498
499
499
498
498
499
498
500
507
515
523
528
528
518
501
488
488
495
501
504
504
506
507
507
509
512
513
512
512
513
514
515
516
517
517
519
521
521
522
522
524
525
526
527
529
532
535
537
540
541
542
542
542
541
539
538
535
531
526
523
518
513
508
508
508
505
503
503
502
501
501
501
500
500
501
500
500
499
500
502
501
501
504
505
505
505
506
506
504
504
505
504
504
504
504
503
502
503
503
502
503
504
505
504
504
504
503
503
504
505
504
503
505
505
504
504
506
507
506
507
507
506
506
507
508
508
506
504
502
501
501
503
502
501
499
498
500
500
500
499
497
499
505
513
520
528
532
528
510
493
487
493
500
504
506
506
506
506
507
507
508
509
510
512
513
514
516
516
516
516
516
517
519
521
524
524
525
527
529
530
532
535
537
538
540
543
544
543
543
541
538
534
528
522
517
512
509
505
502
500
498
497
495
493
493
494
494
493
494
495
494
494
495
495
495
495
497
497
497
498
498
497
496
496
495
495
495
497
498
497
497
497
496
495
496
497
496
496
496
497
497
497
498
498
497
496
496
497
496
496
497
497
497
498
500
500
499
500
501
503
505
506
504
503
504
503
501
498
496
496
496
495
495
495
495
494
495
495
495
497
505
514
524
532
533
521
502
491
493
498
502
505
506
506
507
508
510
511
511
512
512
513
512
513
513
513
514
514
514
514
516
519
521
523
525
528
529
530
532
535
536
537
537
538
537
535
534
532
529
524
520
515
511
507
504
500
497
496
495
494
493
492
493
492
491
491
492
491
491
492
491
491
490
490
492
493
494
494
493
494
496
497
497
496
497
498
498
497
497
498
498
499
501
502
501
500
500
500
500
501
502
502
501
502
503
503
502
504
505
506
507
508
508
508
510
512
514
514
514
514
511
509
508
508
508
508
508
508
508
507
508
508
508
508
509
514
523
531
538
540
532
516
500
495
498
503
506
508
508
509
511
510
510
510
510
510
510
510
511
511
512
514
514
515
516
518
519
520
523
525
525
526
528
530
533
534
537
538
538
539
540
540
539
537
534
531
527
524
520
516
511
509
507
506
506
506
505
503
503
503
502
502
502
501
501
501
503
504
503
503
503
505
506
505
506
506
505
505
507
508
508
508
509
509
508
507
508
509
510
512
513
513
512
513
513
513
511
510
507
505
504
505
503
503
504
505
505
505
505
507
507
506
506
507
511
518
527
533
534
526
509
496
494
500
506
508
508
509
511
511
512
513
514
515
515
517
517
517
516
519
520
521
521
523
524
525
526
527
527
528
531
534
536
538
542
544
544
544
545
545
544
541
537
534
529
525
521
515
511
508
506
502
500
500
500
499
498
499
500
501
501
501
501
500
499
500
501
501
502
502
502
501
501
501
501
500
500
499
499
499
500
499
498
498
498
498
499
500
502
502
502
502
502
502
501
501
502
503
503
503
503
502
502
503
504
505
507
508
510
510
511
511
511
510
508
506
504
503
503
503
503
502
502
500
498
499
501
501
501
502
508
515
521
530
535
530
513
497
491
495
500
505
505
505
504
506
507
507
508
509
510
511
512
512
512
513
514
516
517
518
521
522
523
523
525
527
528
530
533
535
537
540
542
542
543
543
542
540
537
534
530
524
519
514
509
505
502
501
499
498
497
497
495
494
495
496
496
495
496
496
497
498
500
502
502
500
501
501
501
501
502
501
500
500
500
499
499
500
502
502
501
502
502
502
501
501
502
501
500
500
500
500
501
501
500
499
500
500
499
499
500
499
498
498
500
500
500
500
501
502
503
503
504
504
503
501
498
495
493
492
492
491
491
491
491
491
490
491
491
491
492
493
498
506
516
524
528
523
508
492
486
490
495
499
500
500
500
500
500
500
501
501
501
501
502
502
502
504
505
504
505
506
507
509
510
513
516
517
519
522
525
528
530
532
534
535
535
535
533
531
529
527
524
519
514
510
505
501
499
497
495
494
493
493
493
493
493
493
493
494
495
495
495
495
496
496
495
496
497
497
496
496
496
495
496
497
496
497
497
498
498
497
497
498
499
498
498
499
498
498
498
499
499
499
499
499
498
499
502
503
503
504
505
506
506
507
508
508
507
507
505
503
503
504
504
503
503
502
501
500
499
499
500
499
501
506
514
521
530
536
531
515
499
492
496
501
506
508
507
508
509
510
511
512
513
513
513
514
515
516
516
516
516
516
517
520
521
521
522
524
527
528
531
534
536
539
541
543
544
544
545
545
543
541
539
536
530
524
519
513
509
506
504
502
499
497
496
496
496
497
497
497
497
498
499
498
498
498
499
500
501
503
503
502
502
503
503
503
503
503
503
503
504
504
503
503
503
503
502
502
502
502
500
499
498
499
500
500
500
500
500
501
502
502
501
501
500
500
502
501
501
501
501
501
501
501
503
504
504
505
509
510
510
509
510
510
508
506
506
506
505
504
503
502
502
502
503
502
501
501
501
503
509
516
525
533
535
528
510
494
491
497
503
506
506
508
508
509
511
513
512
511
511
512
512
512
513
514
514
516
519
520
521
522
524
526
528
530
532
534
536
538
541
543
544
545
545
545
544
542
540
536
531
527
521
515
511
508
505
501
499
497
494
493
493
495
495
494
495
496
496
496
497
497
497
497
497
498
498
498
498
498
498
498
498
498
497
498
497
497
497
497
498
497
497
497
497
496
496
497
497
496
497
497
496
495
496
498
498
500
503
503
502
502
504
505
505
506
505
503
499
498
498
498
497
496
496
494
492
493
493
493
493
494
494
497
505
516
526
531
532
520
502
489
489
494
498
499
500
500
501
502
503
504
504
505
507
508
508
508
509
510
510
510
511
513
514
516
518
520
522
525
527
528
530
532
534
536
538
540
540
539
537
536
533
530
527
524
519
515
512
509
506
503
502
501
499
497
497
496
495
495
495
495
496
498
499
499
499
501
502
502
502
504
505
504
505
506
507
506
506
505
505
505
505
505
504
503
504
505
505
505
508
510
511
511
512
514
514
515
515
515
512
510
509
508
507
508
507
507
507
508
508
506
506
506
506
506
506
510
517
525
534
541
539
525
509
499
501
505
511
513
513
513
514
514
513
514
515
515
515
514
516
517
518
518
520
520
521
522
525
526
527
529
532
534
536
539
542
543
545
547
547
546
545
545
543
540
537
535
530
523
517
512
508
505
504
502
501
500
500
500
499
499
500
500
498
498
499
500
500
500
500
501
502
502
502
502
502
503
502
502
502
502
502
501
501
502
502
502
502
503
503
503
504
504
503
503
503
503
503
503
503
503
503
503
503
503
502
503
504
504
503
503
503
502
501
504
505
505
505
506
506
506
506
505
504
503
502
502
501
499
498
499
499
498
499
500
499
499
499
501
507
514
523
531
532
522
505
493
490
496
500
502
503
503
504
504
505
506
506
506
508
510
510
511
512
513
513
514
515
517
518
519
519
521
522
524
529
531
533
535
538
540
542
543
543
543
541
540
539
536
530
524
520
515
510
506
503
502
500
500
499
498
497
497
498
496
496
497
497
496
496
497
497
497
498
497
496
495
496
497
498
497
497
497
497
499
498
498
497
497
498
497
496
497
498
498
497
497
499
500
500
500
500
499
499
498
499
500
503
503
503
503
505
506
507
507
507
506
505
504
503
503
503
501
502
500
500
502
503
503
502
502
504
508
515
525
535
538
530
513
496
490
494
501
504
505
504
505
506
506
506
505
505
504
504
505
505
505
506
507
507
507
508
509
511
512
515
517
519
520
523
526
528
530
532
533
533
535
536
536
534
532
528
523
518
515
511
507
503
500
497
494
492
492
491
490
490
490
491
490
490
491
492
491
491
491
492
493
495
496
495
495
495
494
494
495
495
495
495
496
498
498
497
496
496
496
496
499
501
500
501
502
502
501
501
503
503
500
499
498
497
496
496
495
494
493
492
491
490
491
492
492
490
490
496
505
514
521
525
521
506
491
483
486
490
495
498
498
498
499
499
499
499
500
502
503
504
506
506
507
508
509
509
509
510
511
511
513
516
519
522
524
526
526
528
531
533
533
533
533
533
531
529
526
522
516
512
509
507
504
502
502
501
501
501
502
502
502
502
502
502
501
503
505
505
505
505
505
505
504
505
505
505
506
506
506
505
504
504
503
503
503
503
503
504
504
504
505
506
508
508
507
506
507
508
508
508
510
511
510
512
512
511
508
506
505
506
505
504
503
503
504
505
504
504
504
506
507
507
510
517
522
528
534
531
519
503
493
495
500
504
506
508
507
509
511
512
511
512
513
514
513
514
516
518
518
518
519
521
523
525
526
528
529
531
533
535
539
542
542
543
546
548
548
546
545
545
543
540
537
533
528
523
519
516
513
510
508
507
506
505
506
506
505
505
504
505
505
506
507
506
506
506
507
507
506
507
507
507
507
507
507
506
505
507
507
506
505
507
508
508
508
508
508
508
510
510
510
510
511
510
510
509
509
509
509
510
511
511
512
514
516
515
515
518
520
521
521
521
519
517
514
512
512
512
513
515
515
514
514
514
513
512
512
514
519
524
530
538
543
539
524
508
499
503
509
513
514
514
513
513
514
515
516
516
516
518
519
518
518
521
522
523
523
525
526
526
527
528
530
531
534
537
539
541
543
545
546
548
550
550
550
548
546
543
538
534
529
525
520
516
514
510
507
505
504
503
502
501
501
502
502
502
502
501
502
504
504
503
504
505
505
503
502
503
502
502
502
501
500
499
499
499
498
498
498
498
497
497
497
497
496
498
499
499
498
498
497
497
497
497
498
497
497
498
499
500
501
503
503
503
503
505
505
505
507
507
506
504
503
502
499
498
498
497
497
497
498
498
497
497
498
498
499
505
514
522
530
534
528
510
493
488
492
497
500
503
503
502
502
504
504
504
504
506
507
508
509
510
510
510
513
514
514
514
515
516
516
517
519
521
522
524
527
529
531
533
535
535
533
532
532
529
526
521
516
510
506
504
501
498
495
495
494
493
492
492
492
492
493
494
494
494
493
493
493
493
495
496
497
498
498
497
496
496
497
497
497
497
498
498
497
497
497
496
496
497
497
498
498
498
498
499
500
501
501
503
504
505
506
506
505
502
498
497
499
500
500
499
500
500
500
499
499
500
499
499
500
501
507
515
523
529
531
524
508
494
491
494
498
500
500
502
503
503
504
504
505
507
506
507
507
507
508
509
511
512
514
514
515
515
519
521
523
524
527
530
532
533
535
536
537
539
540
539
536
535
532
527
522
517
513
508
505
503
501
498
497
497
497
496
496
496
496
496
497
497
497
497
499
499
499
500
501
502
502
502
503
502
501
500
501
501
501
501
501
502
501
500
501
500
499
500
499
499
500
502
503
502
503
503
503
503
504
505
505
504
504
504
504
503
504
504
503
502
504
505
505
506
507
507
507
508
508
507
505
503
503
503
502
501
500
499
498
499
499
498
500
502
503
507
513
519
527
535
535
523
507
495
495
499
504
507
508
507
508
509
509
509
508
508
510
509
510
511
512
512
512
513
513
514
515
516
518
520
520
523
526
528
531
534
536
538
539
539
538
537
537
535
531
528
523
519
513
508
505
502
499
497
496
495
495
495
495
494
494
495
496
496
495
495
496
497
498
500
501
500
500
502
502
502
502
503
503
502
501
502
502
502
503
502
502
502
503
502
502
501
502
502
502
502
504
504
503
502
502
503
503
503
505
504
504
504
504
503
502
505
507
509
511
512
513
512
514
515
516
516
516
515
513
510
508
507
507
506
505
504
505
504
504
503
503
503
505
506
509
515
525
536
544
545
534
516
501
500
506
510
512
512
513
513
513
514
514
514
514
515
515
515
515
518
519
520
520
521
522
522
523
525
526
528
531
533
536
538
541
544
545
546
547
547
544
542
541
538
534
529
525
520
515
511
508
504
500
498
496
495
495
495
495
494
493
494
495
494
494
495
496
497
498
499
497
497
499
499
498
497
497
497
497
496
497
496
496
496
496
495
495
496
496
496
495
496
496
494
493
493
492
492
492
493
493
494
494
495
495
495
496
498
500
501
503
503
503
504
506
507
507
506
507
505
504
502
501
501
500
500
500
500
500
500
500
500
499
500
501
503
509
518
527
533
534
527
510
495
491
495
499
502
502
503
503
503
504
506
505
505
508
510
511
509
510
511
512
511
513
516
516
517
519
521
523
525
528
529
530
533
535
536
537
539
539
538
536
535
531
526
522
518
514
510
507
503
500
498
497
495
493
492
493
492
492
493
494
494
494
495
496
497
497
497
498
498
497
498
500
501
500
501
502
502
500
500
501
501
501
501
501
501
502
501
500
499
500
500
500
501
501
502
503
503
503
503
503
504
506
507
507
507
511
511
511
511
512
510
507
506
505
505
505
503
503
503
501
501
500
500
501
503
503
504
507
515
522
531
538
538
525
507
496
498
503
506
509
510
510
509
510
510
510
510
512
512
512
511
512
512
512
514
515
516
517
518
520
521
524
527
528
529
531
534
536
538
539
542
542
542
542
541
538
534
530
525
519
514
511
508
504
502
501
500
499
498
498
498
498
498
499
499
499
500
501
501
499
499
500
500
502
503
503
502
501
500
500
499
500
500
500
500
501
500
499
499
501
502
501
500
501
501
500
500
502
502
501
501
501
501
500
500
500
500
500
501
502
501
501
501
500
500
500
501
502
503
503
504
507
508
509
509
508
506
504
503
502
501
502
502
503
502
503
503
503
503
504
504
505
508
513
520
530
538
540
530
512
498
497
501
505
509
509
510
510
510
511
511
512
512
513
512
512
514
516
516
516
516
517
518
520
521
521
522
523
524
525
526
528
531
534
535
535
535
535
535
535
533
530
527
524
520
515
512
508
505
502
500
499
496
496
496
497
496
496
497
497
497
498
500
500
500
500
501
502
501
500
500
500
500
501
501
501
502
503
502
501
501
502
502
502
503
504
504
503
504
504
503
501
501
500
499
499
501
503
503
504
505
506
507
507
508
509
508
506
504
501
499
499
498
495
494
495
496
496
496
497
497
496
498
500
504
512
521
529
533
526
510
495
492
496
502
507
507
507
508
508
507
507
508
508
507
509
509
509
510
512
513
514
514
516
518
520
521
524
526
526
528
530
533
536
538
540
542
543
544
544
542
541
539
536
533
528
523
519
515
512
510
507
504
503
502
501
500
500
501
501
500
500
501
501
501
501
502
503
504
505
505
504
504
503
503
502
502
503
502
502
504
505
504
503
503
504
503
503
504
503
503
502
503
503
503
503
504
504
505
505
505
505
505
505
506
507
507
509
509
509
509
510
510
513
514
516
516
514
514
513
510
508
508
507
505
503
502
503
504
505
506
506
507
507
507
511
518
525
533
536
531
516
501
496
500
505
508
509
510
512
513
512
512
514
514
513
514
516
516
515
516
517
517
517
518
520
521
521
523
524
527
529
533
535
536
538
541
543
544
543
543
543
540
538
534
529
524
520
516
511
508
506
504
502
501
500
499
498
497
498
497
496
495
495
494
494
496
497
496
496
497
498
498
498
499
498
498
499
499
499
498
497
498
498
498
498
498
498
497
498
499
499
498
499
497
497
497
497
497
495
495
496
497
497
498
498
497
498
500
502
502
502
503
505
507
506
506
506
504
503
502
501
500
500
501
501
500
500
501
500
500
501
502
503
504
511
518
528
537
540
531
512
497
495
500
505
508
510
509
508
507
508
508
509
511
511
510
509
509
509
511
513
514
515
515
517
519
521
523
526
528
530
533
535
538
540
542
544
544
544
543
542
541
537
533
529
524
519
513
509
504
500
498
495
493
493
493
493
492
492
494
493
492
492
493
493
493
494
494
494
494
495
495
495
496
497
497
496
497
498
499
499
498
500
500
500
500
501
501
501
501
502
503
502
503
503
502
501
501
501
502
503
504
505
504
505
508
509
509
509
510
510
511
512
512
510
509
508
508
508
508
508
507
506
506
508
507
506
506
507
507
509
515
523
533
541
544
535
515
499
498
503
507
509
509
510
510
512
513
513
513
515
516
516
516
516
516
516
517
518
519
520
521
523
525
526
528
531
532
535
537
539
541
542
544
545
544
543
541
539
535
530
526
522
516
511
508
505
503
501
499
498
497
497
497
497
497
497
499
499
498
499
499
498
497
497
497
496
496
498
498
497
498
499
498
497
497
498
497
497
497
498
498
498
498
498
498
498
498
497
497
498
500
500
501
502
503
503
505
507
508
508
508
507
505
500
497
497
497
498
497
498
498
497
497
498
498
497
497
497
497
502
511
522
529
531
525
509
492
486
491
496
499
501
501
502
503
506
507
507
506
506
507
506
507
508
509
509
509
509
510
512
514
517
520
521
523
526
527
528
532
534
536
538
540
539
538
536
535
532
528
523
519
515
511
508
506
503
499
498
499
497
496
494
494
494
494
494
495
495
496
498
498
498
498
499
501
501
503
504
503
503
502
503
503
504
505
506
505
503
502
502
502
503
504
505
505
505
508
509
508
509
510
510
508
506
505
504
505
505
505
505
505
507
507
506
506
507
508
507
507
508
513
521
529
539
542
537
521
504
498
501
507
508
510
511
512
512
513
514
514
514
514
514
516
516
517
519
521
522
522
523
523
524
525
528
530
532
535
538
541
542
544
546
547
547
548
548
546
543
540
536
531
526
522
518
513
509
507
504
502
501
500
498
497
497
497
497
497
498
498
499
499
501
501
501
500
500
501
501
501
502
502
501
501
502
502
501
502
502
502
502
503
503
503
502
503
503
502
501
502
502
501
501
501
501
500
502
504
506
505
506
508
510
510
511
512
511
509
506
504
502
501
500
500
499
498
498
498
497
497
499
499
499
501
507
515
524
533
537
529
512
497
494
497
501
503
503
503
504
505
506
505
507
508
509
509
509
510
510
510
512
513
512
514
517
519
519
521
524
526
527
530
533
535
537
540
541
541
541
542
542
538
535
531
527
520
515
511
507
502
500
498
496
494
493
492
491
491
493
493
493
494
495
495
494
495
495
495
496
496
497
497
498
497
497
497
496
498
498
497
497
497
497
496
496
497
497
496
496
497
496
495
496
497
497
497
498
497
497
499
502
505
505
505
506
507
508
508
508
508
507
505
504
503
503
502
501
500
500
501
502
502
503
504
504
507
514
523
534
540
539
525
505
493
496
501
503
504
504
504
504
505
507
508
507
507
508
510
510
510
511
512
513
514
516
518
518
519
521
523
525
528
530
532
535
539
540
542
542
542
542
542
541
538
534
529
524
518
512
507
504
500
497
494
493
492
490
490
491
491
491
492
491
490
490
491
492
493
493
493
493
493
493
494
495
495
495
496
495
495
496
497
497
496
496
496
495
496
497
497
496
494
495
496
494
494
496
496
496
496
497
498
500
502
502
503
503
503
503
504
504
503
501
499
497
497
497
497
497
498
497
497
497
498
498
498
498
499
505
513
522
531
534
528
510
493
488
491
496
500
502
503
504
505
505
506
505
506
507
508
509
508
508
509
511
512
514
516
516
517
518
520
520
522
525
528
528
530
531
533
534
535
536
537
536
534
531
528
523
519
515
511
506
503
502
500
499
499
499
499
498
498
499
499
498
498
498
498
498
498
499
499
499
501
501
500
501
502
502
502
502
503
503
503
503
504
503
504
505
506
505
505
505
505
505
505
506
507
508
510
512
513
512
514
514
512
513
515
515
512
509
506
506
504
505
506
506
505
505
505
505
504
504
504
504
506
512
520
529
537
540
534
517
500
495
500
505
509
511
511
512
512
513
513
512
513
513
514
515
517
518
518
517
518
520
522
523
525
525
525
527
530
533
534
537
539
540
542
545
546
545
543
541
538
534
529
524
519
514
509
506
502
500
499
498
496
493
493
494
494
493
493
494
494
494
495
496
496
497
498
498
497
497
498
498
497
497
498
498
498
497
497
497
497
497
498
498
499
500
499
497
496
497
496
496
497
497
497
496
496
496
496
496
497
498
499
500
501
500
500
501
503
503
502
502
502
501
498
497
498
497
496
497
498
498
498
498
499
499
499
499
502
508
515
524
531
531
519
503
491
493
499
505
507
507
508
507
506
507
509
510
510
510
511
513
513
514
516
517
518
519
520
522
524
525
528
530
532
535
537
539
541
544
545
546
546
546
545
544
542
540
533
526
522
519
516
512
509
506
505
503
502
501
500
500
501
501
502
502
503
504
504
506
508
507
507
507
507
508
507
507
508
507
507
507
507
507
507
507
506
505
504
504
504
503
504
503
502
501
501
501
501
500
500
500
499
499
501
502
502
504
507
506
506
507
508
509
509
509
508
506
504
504
504
503
502
503
502
501
501
501
502
503
503
503
505
511
520
530
537
536
523
504
491
492
498
502
504
505
504
504
505
505
507
507
507
507
507
507
506
507
509
509
509
511
511
511
512
515
517
518
520
522
523
524
526
528
530
531
531
532
530
528
528
525
520
516
512
507
503
500
498
496
494
493
493
492
490
490
492
493
493
492
491
491
490
490
491
491
493
494
494
493
493
493
494
493
493
494
493
493
494
495
494
494
494
494
493
492
493
493
494
495
497
497
498
499
502
503
504
505
507
507
507
508
507
504
501
501
501
502
502
502
501
500
500
501
500
499
500
501
502
503
510
518
527
534
535
524
506
492
492
498
502
505
507
508
508
509
510
511
513
513
514
514
514
516
517
518
518
520
521
523
524
526
527
529
531
534
536
538
541
544
545
546
548
549
549
548
548
545
542
537
531
526
522
518
515
512
508
506
505
505
504
503
502
502
502
503
504
504
504
505
506
506
506
507
508
507
506
507
508
508
509
509
509
507
507
507
507
507
507
507
507
506
506
506
506
505
506
505
504
503
503
504
505
506
508
509
510
511
513
514
514
515
515
514
512
511
510
508
508
507
505
505
505
505
505
505
505
505
504
504
507
512
519
528
539
544
540
523
504
496
499
505
508
510
510
513
514
513
513
513
514
515
516
516
516
516
517
519
520
519
519
521
523
524
527
529
530
532
535
538
540
543
545
547
547
546
546
545
544
540
536
531
525
520
515
511
506
503
500
499
497
496
496
497
496
496
496
496
496
496
496
496
497
499
498
497
498
498
498
498
499
499
499
498
499
498
498
497
498
497
497
496
497
497
496
496
497
497
495
495
496
495
495
495
495
496
496
497
498
499
501
504
503
502
503
504
505
506
506
504
502
500
500
500
499
499
499
500
499
498
498
497
496
496
496
499
505
513
522
531
532
522
503
488
486
493
498
499
499
499
500
501
501
502
503
503
504
504
505
505
506
507
508
509
511
513
515
515
516
518
519
520
523
526
529
530
531
533
535
538
538
537
535
533
531
525
520
516
509
504
500
499
497
495
494
494
493
492
493
493
493
491
492
494
495
495
497
499
500
499
499
498
498
498
499
498
497
496
497
497
496
496
497
497
498
499
500
500
500
501
500
499
498
498
498
498
498
498
498
497
499
501
502
501
503
504
504
503
504
504
502
499
498
497
497
496
498
500
499
499
501
501
501
501
502
501
502
507
515
525
533
537
532
515
498
493
497
503
507
509
509
508
509
510
511
511
510
512
512
513
514
515
515
514
516
518
519
520
521
522
522
524
526
527
528
531
534
536
538
539
540
540
539
538
536
534
530
526
522
517
512
508
505
502
500
499
498
497
496
496
495
494
495
495
495
495
497
498
499
499
499
500
500
499
501
501
502
502
503
503
503
503
502
501
502
504
504
504
504
505
506
506
506
508
510
509
509
510
509
505
502
502
502
501
502
502
503
504
504
503
502
501
503
505
505
505
509
517
526
535
540
535
520
503
496
498
502
506
507
508
506
507
507
507
508
510
511
511
512
513
514
514
516
517
517
518
520
522
523
525
527
529
531
533
536
538
540
542
545
546
546
547
547
544
540
536
532
528
524
519
516
512
509
508
508
506
505
505
505
504
503
503
503
502
502
503
503
502
504
505
506
506
507
507
507
506
506
507
507
507
508
507
508
510
510
510
509
510
510
510
509
510
510
510
510
511
511
510
510
511
512
513
515
516
517
517
518
519
520
518
518
516
513
511
511
510
510
509
509
507
508
507
508
508
507
507
509
512
518
526
535
542
542
531
513
501
500
506
510
511
511
513
513
512
512
513
514
514
515
515
515
515
517
518
520
521
523
525
526
527
529
531
532
534
537
539
541
543
545
547
548
549
549
549
547
544
540
535
530
525
520
514
510
507
506
503
501
501
500
499
498
498
498
498
499
499
499
499
500
502
502
502
502
502
501
502
503
504
503
502
501
499
499
500
500
499
500
501
500
498
498
499
500
499
498
499
499
499
499
499
499
499
500
499
499
499
501
503
504
504
505
505
505
506
508
507
506
506
505
503
501
500
501
501
500
501
501
500
500
501
501
500
500
505
513
523
531
537
534
516
498
491
494
500
504
505
505
505
507
509
509
510
511
512
512
512
514
514
514
513
515
517
518
519
521
521
522
525
527
529
531
533
536
537
539
542
543
543
542
542
540
536
531
526
520
514
510
506
502
499
497
497
496
494
493
493
492
491
492
493
493
492
492
493
493
493
494
493
493
494
495
494
493
494
495
494
494
494
493
492
492
493
493
493
493
494
495
495
495
496
497
496
496
495
495
495
497
498
497
497
498
498
499
499
501
501
502
502
502
502
501
502
502
500
499
498
499
499
499
500
499
499
498
498
499
498
498
499
499
499
504
512
522
530
535
529
513
496
490
494
497
501
503
504
504
504
505
505
505
505
506
507
507
508
509
510
511
512
513
514
516
518
519
520
523
525
526
528
531
535
537
538
539
540
539
539
538
536
533
528
524
520
516
511
508
506
503
500
498
496
495
495
496
495
494
494
495
495
494
495
495
495
495
496
495
495
496
498
498
498
499
499
498
498
499
498
498
497
497
497
498
498
499
499
499
500
502
503
503
505
506
505
505
505
503
501
499
499
500
500
499
499
500
500
500
501
502
503
504
504
504
504
508
517
525
534
541
541
527
509
499
501
506
510
513
512
512
511
513
513
513
514
515
515
514
514
515
516
516
519
519
518
519
521
523
525
526
529
532
535
538
541
542
543
544
545
546
545
544
544
541
536
531
526
520
515
511
508
505
502
500
499
497
497
498
498
497
498
498
497
497
497
498
499
499
500
500
500
500
501
501
501
502
503
504
502
502
503
503
501
501
503
503
502
503
504
503
502
503
503
502
502
502
502
502
502
504
505
505
505
505
507
507
507
507
506
506
506
508
508
510
512
511
510
511
512
513
512
511
509
508
506
506
507
507
506
507
507
506
505
506
505
505
505
505
507
513
520
531
539
540
530
513
500
498
503
508
510
511
511
511
511
509
510
510
510
512
513
514
514
516
518
518
519
520
521
522
523
525
528
529
530
533
536
537
537
540
542
544
544
545
544
543
541
538
534
529
523
518
514
509
506
504
500
499
499
499
498
498
498
498
497
498
499
500
501
502
502
502
501
502
502
501
499
499
499
499
500
501
501
499
499
500
500
500
500
501
501
501
500
499
499
500
500
501
500
500
502
502
502
501
501
502
504
506
506
506
506
508
510
510
509
509
508
506
505
504
503
503
503
503
502
500
500
500
501
501
502
502
504
509
517
528
537
540
531
512
496
493
499
504
507
508
509
509
509
509
511
511
511
512
513
514
514
515
516
517
518
519
520
521
523
525
527
528
530
533
536
537
540
544
545
545
546
545
544
542
540
537
531
525
520
515
510
506
504
501
498
497
497
496
495
493
493
493
492
493
494
494
493
494
494
493
493
495
496
495
494
495
495
495
495
495
495
494
495
495
496
497
498
498
497
495
496
496
496
496
498
498
497
498
498
498
498
499
500
499
498
500
501
502
502
503
504
504
503
504
504
504
502
501
500
499
499
499
499
498
498
499
499
498
498
497
496
496
499
504
512
522
530
532
523
506
492
488
491
497
500
501
501
502
501
501
502
504
505
507
507
507
507
508
510
510
511
512
513
514
514
516
520
522
523
524
528
530
531
533
534
536
537
537
537
535
532
528
525
519
514
510
508
503
499
497
496
495
494
493
493
493
493
494
493
493
495
497
497
496
496
496
496
495
496
496
496
495
494
494
494
494
495
495
494
495
496
496
496
497
499
501
502
504
505
506
507
508
508
507
505
503
501
500
500
501
500
499
500
501
502
501
503
504
504
504
505
505
506
512
521
530
536
536
525
507
493
493
498
503
505
504
503
504
504
504
504
504
504
506
506
505
506
507
507
507
508
509
511
512
514
517
519
520
522
525
527
528
531
532
533
534
535
535
534
531
529
525
520
515
510
506
502
499
496
494
493
492
492
491
489
488
489
491
492
492
492
492
492
493
493
492
492
494
493
493
495
496
495
494
496
496
495
494
495
495
495
495
496
496
497
497
497
498
498
498
498
498
498
499
499
499
499
500
502
503
503
505
507
507
505
506
507
505
504
502
500
500
501
501
502
501
501
501
500
500
501
501
501
502
504
508
515
524
535
542
539
525
508
498
499
505
509
509
509
512
512
512
512
512
513
513
514
516
516
517
518
520
520
522
525
527
530
530
532
535
536
538
541
544
546
547
549
551
553
553
553
552
549
546
542
537
531
528
524
519
515
512
510
508
506
506
505
505
504
504
504
503
503
503
503
503
504
506
506
505
506
506
506
504
505
506
507
507
507
506
506
506
507
507
507
507
508
508
506
506
505
506
506
507
508
508
507
508
510
512
514
515
515
514
515
517
519
519
517
515
513
513
513
512
510
509
508
509
508
508
509
508
507
507
508
509
513
522
533
545
550
546
526
507
500
504
509
512
513
514
515
516
516
516
516
516
515
516
518
519
519
519
519
519
521
522
522
522
524
525
527
529
532
535
537
538
540
542
542
543
544
543
541
538
535
529
524
520
515
510
506
503
500
498
496
496
495
494
494
494
494
494
495
495
495
496
496
497
497
497
499
500
499
498
498
498
497
497
497
497
497
497
497
496
495
495
495
495
496
496
496
495
495
495
496
495
494
495
495
495
495
496
498
499
500
501
501
501
502
502
502
502
502
502
501
500
500
500
500
501
501
501
499
500
501
502
502
501
500
499
502
511
520
528
533
531
518
500
490
492
496
499
501
502
503
504
506
506
507
507
509
510
510
510
511
512
513
514
514
515
516
517
520
521
522
524
527
529
532
534
536
537
539
540
540
539
538
538
535
531
526
522
517
513
509
506
502
498
497
496
495
494
495
494
494
493
493
494
494
495
495
496
496
497
498
498
498
499
498
498
498
498
498
498
497
497
497
498
499
499
498
497
498
501
502
503
504
506
506
507
508
507
504
502
502
502
500
499
501
502
502
502
502
501
501
502
504
505
505
507
511
516
523
533
540
540
528
511
498
497
503
508
510
510
510
509
509
511
513
514
513
513
514
514
515
515
516
518
519
520
522
523
523
525
528
530
531
533
536
538
540
542
545
546
547
547
547
545
541
537
532
525
521
518
515
511
509
507
505
503
501
501
499
498
499
499
498
498
498
498
499
500
501
501
501
500
500
501
500
501
502
502
503
503
503
503
502
502
503
503
504
505
505
505
504
505
504
503
502
502
501
500
501
502
502
502
503
504
504
503
504
504
504
503
503
503
503
504
505
505
506
507
507
507
507
508
507
505
503
503
503
503
503
504
503
502
502
503
503
502
502
503
503
507
515
523
533
538
535
519
501
493
498
503
506
508
509
509
509
509
510
510
510
509
510
510
511
512
513
515
517
518
519
520
520
522
523
524
526
529
532
535
538
541
543
544
544
544
544
544
543
540
536
531
526
520
515
511
508
504
500
498
498
497
496
496
497
496
495
495
495
495
495
497
496
496
497
498
498
499
500
502
502
501
501
501
503
502
503
503
503
503
503
503
502
501
502
502
502
503
503
503
501
500
501
500
499
500
499
499
499
501
503
504
504
506
506
506
506
508
508
507
506
505
505
504
503
503
502
501
500
499
497
497
497
498
499
500
502
503
503
507
513
522
534
542
542
526
505
496
498
502
505
507
507
507
506
507
507
506
506
508
509
509
509
509
510
511
512
513
515
517
519
522
524
525
528
531
534
537
539
543
544
545
547
548
547
545
543
538
533
528
523
517
512
507
502
499
497
495
494
492
491
491
490
490
490
490
489
488
489
490
491
490
490
490
491
491
491
491
491
491
491
490
488
488
490
492
492
492
492
492
492
492
494
495
495
495
496
496
496
497
497
497
497
498
498
497
496
497
497
497
498
500
502
502
503
504
503
503
503
504
504
504
503
501
499
498
498
498
496
496
496
496
495
495
495
496
496
498
498
503
510
519
529
534
534
521
503
491
491
497
501
504
504
505
505
505
506
506
506
506
507
508
509
510
512
512
512
513
516
517
519
521
524
525
526
528
530
533
536
538
540
541
542
543
543
541
540
539
535
530
525
520
515
509
506
504
502
499
499
498
497
495
495
495
495
495
496
496
495
496
498
498
498
499
499
500
500
501
502
501
500
501
501
501
500
501
501
501
501
502
502
502
502
502
502
500
499
499
499
500
503
504
505
506
509
511
511
511
511
511
509
507
505
504
504
503
504
503
502
503
504
503
503
503
503
502
502
504
509
518
527
537
541
536
520
503
497
499
505
509
510
510
511
512
513
513
514
516
517
517
517
517
517
517
518
519
520
521
522
523
524
526
528
529
531
534
536
539
541
543
544
544
544
545
543
540
536
532
525
519
515
512
507
504
502
499
498
497
497
497
496
496
497
497
498
499
500
501
501
500
501
501
501
501
501
500
499
500
501
500
500
500
500
501
502
503
503
502
502
502
502
501
501
501
502
501
502
502
503
503
504
504
503
503
505
506
505
504
503
504
505
505
504
503
504
506
509
509
510
511
512
514
514
513
512
511
508
507
507
507
507
507
506
506
506
506
505
506
507
508
507
508
514
521
530
539
543
536
518
502
499
503
507
509
509
507
507
508
510
509
509
510
512
512
512
513
514
514
514
515
517
517
518
520
521
524
526
530
532
534
538
542
544
546
548
548
549
548
547
545
542
537
533
528
523
518
512
507
505
504
502
502
501
500
500
501
501
501
500
501
501
501
501
501
501
501
501
502
501
501
501
501
502
503
502
501
501
500
499
499
499
500
500
500
501
501
502
502
502
500
499
499
499
498
497
498
499
500
501
502
501
502
503
503
502
502
503
503
503
503
505
505
503
502
503
505
506
505
504
504
502
500
500
500
500
501
501
500
500
500
500
499
499
499
499
500
503
511
520
530
536
535
522
503
491
493
497
501
503
503
503
502
502
504
504
505
505
506
506
507
509
509
508
509
511
513
514
515
516
517
518
520
522
524
526
529
532
533
535
537
538
538
537
535
532
528
522
519
514
508
505
502
498
496
494
495
494
493
493
493
493
492
493
494
494
495
497
497
497
497
498
498
498
499
500
501
501
501
501
501
500
500
500
499
499
500
501
501
500
500
500
500
499
499
500
500
501
501
501
500
501
501
500
498
498
498
498
499
501
502
503
505
506
506
506
506
507
507
507
507
506
505
503
503
502
502
502
502
502
501
501
500
501
501
501
500
501
501
507
516
525
533
537
531
516
498
492
497
502
505
507
509
509
510
512
513
513
514
515
515
515
515
516
518
518
519
520
522
525
526
527
529
530
533
536
537
538
540
541
543
545
547
547
546
545
544
541
537
533
528
523
517
515
511
508
507
506
503
502
501
501
501
500
500
501
501
501
501
501
502
503
504
504
503
504
505
504
504
504
505
505
505
505
505
504
503
504
504
503
503
504
505
504
504
505
505
504
504
505
506
506
506
506
506
504
504
504
504
506
509
510
510
510
512
512
511
511
512
510
509
507
506
505
505
504
504
503
503
504
504
503
503
503
504
504
506
512
519
526
535
541
538
522
505
496
498
503
507
509
510
511
511
510
508
509
511
511
511
511
513
514
514
516
519
520
521
523
524
526
529
532
535
536
538
541
543
544
546
548
549
549
549
548
546
543
539
533
527
521
518
515
510
506
504
502
502
501
501
500
500
501
502
502
501
501
503
503
503
504
503
503
502
502
502
502
503
504
504
503
503
504
503
503
504
504
503
501
501
502
502
503
504
505
505
503
504
504
503
503
504
504
504
503
503
504
504
504
503
501
501
501
502
503
503
504
504
505
506
508
507
507
507
507
508
508
507
505
504
502
503
505
506
506
505
504
503
502
502
501
501
501
502
502
505
512
521
532
539
540
527
507
494
494
499
503
503
504
504
505
505
504
504
504
506
509
510
509
509
510
511
511
512
512
511
511
514
516
517
518
521
523
526
529
532
533
534
536
537
538
537
535
532
529
525
520
514
509
505
501
497
494
492
492
492
490
490
491
491
490
490
490
491
491
492
492
492
492
493
493
493
493
496
496
495
494
495
496
495
494
494
493
493
493
495
495
495
496
496
496
497
499
499
498
498
499
499
499
499
499
499
499
501
502
502
502
503
504
505
505
505
506
507
507
508
510
509
507
506
504
503
502
503
503
503
503
503
502
502
502
502
502
500
501
502
508
517
527
535
537
527
509
495
492
496
500
503
504
505
506
507
506
508
509
509
508
509
510
510
510
511
512
512
514
517
518
519
522
524
525
526
529
532
534
536
538
540
540
541
542
542
541
539
537
532
527
522
518
514
510
507
505
503
501
501
500
500
499
500
500
499
499
499
498
497
499
499
499
500
500
502
502
503
504
504
503
503
503
503
503
502
504
504
503
504
506
506
505
505
505
504
504
505
505
504
504
505
506
505
506
506
506
505
505
505
506
505
505
506
507
509
510
512
513
512
513
514
514
513
514
512
510
509
509
508
508
508
508
509
509
509
509
509
508
509
509
509
513
521
530
540
544
540
523
506
499
503
507
510
513
514
514
513
512
514
515
516
516
516
516
515
516
515
516
517
519
521
521
523
525
527
528
531
534
534
535
538
540
542
544
547
549
548
546
544
540
534
529
525
519
514
508
505
503
501
499
498
497
496
496
496
495
494
495
496
497
497
498
498
497
497
498
498
498
498
498
497
497
498
499
499
499
501
501
500
500
501
502
500
500
501
501
501
500
500
500
499
500
501
500
500
500
501
500
500
502
502
502
501
501
502
502
502
502
501
501
502
504
505
506
507
507
508
509
510
510
509
507
506
505
504
503
504
504
503
502
503
502
503
503
503
503
504
505
509
516
525
538
546
546
532
513
500
501
505
508
510
509
508
508
509
509
510
512
512
513
514
515
515
515
516
516
516
516
518
520
520
522
524
526
528
532
536
539
541
543
545
545
545
545
545
543
539
535
530
524
518
512
507
503
499
498
495
493
491
491
491
491
493
494
492
490
490
491
491
491
492
493
492
493
494
494
493
493
494
492
491
490
490
491
491
492
492
491
491
493
492
491
491
492
493
492
493
493
493
493
493
494
494
494
495
495
494
495
495
495
494
495
496
495
494
494
496
498
497
498
498
498
498
500
500
500
499
500
501
499
498
499
500
499
498
498
499
499
499
500
501
500
500
502
506
514
524
534
541
540
527
507
495
495
500
504
505
505
506
506
506
508
508
509
508
509
510
510
511
513
515
516
516
518
519
521
522
523
523
525
527
530
532
534
537
538
540
541
543
543
542
540
538
534
529
524
518
512
508
505
503
500
498
499
498
497
496
497
498
497
497
498
499
499
499
499
499
499
500
501
501
501
501
502
502
502
502
502
501
501
502
502
503
505
504
505
504
504
505
506
505
505
506
506
505
505
505
504
504
505
506
506
506
506
506
508
510
513
514
515
516
517
516
515
514
514
512
511
512
512
512
512
511
513
511
511
512
514
514
514
514
515
519
528
536
545
549
546
531
511
501
503
509
513
516
518
519
519
519
520
519
520
520
521
521
521
523
524
526
526
527
529
529
529
531
533
534
535
537
539
541
544
547
549
551
553
554
554
552
550
548
544
538
533
527
521
516
513
511
508
507
506
505
504
503
504
504
503
502
503
502
502
503
503
503
502
502
503
503
503
504
505
505
505
505
505
504
504
503
503
502
503
503
503
502
502
502
501
499
499
499
499
499
500
500
500
499
499
498
499
500
501
501
501
502
502
503
503
503
504
504
505
507
509
508
508
508
508
508
508
507
506
504
504
504
505
504
504
504
504
503
504
504
503
503
504
504
505
511
519
529
538
542
534
513
496
493
498
503
506
507
507
506
507
508
509
509
509
510
511
513
513
514
514
514
515
517
518
519
521
523
524
525
528
530
532
534
537
539
540
543
544
544
543
543
541
537
533
529
525
520
514
509
505
501
498
497
496
495
495
497
497
496
496
496
496
497
497
498
497
497
498
499
499
499
500
501
500
501
503
504
503
503
504
503
502
503
504
503
502
503
504
505
504
504
504
503
503
505
506
506
505
505
505
504
505
505
505
504
503
503
502
502
503
503
502
502
503
503
503
504
506
505
504
506
508
508
508
508
508
506
503
503
503
503
502
503
504
503
502
502
502
501
501
502
503
509
518
528
537
540
533
516
499
493
497
501
503
503
505
505
505
506
505
505
505
506
507
507
507
509
509
510
509
511
512
513
515
517
519
521
523
527
528
530
533
536
538
539
541
541
541
540
539
537
534
529
525
518
513
509
506
504
501
499
498
497
496
496
497
496
496
496
497
496
495
495
495
495
494
495
496
496
496
497
497
497
498
499
498
498
499
499
500
500
501
502
501
501
501
500
500
500
501
501
502
501
502
502
503
503
502
501
501
501
502
502
503
504
503
503
504
506
507
509
508
509
510
511
512
511
510
509
508
507
506
505
504
503
503
503
505
505
504
504
505
505
504
506
512
520
527
534
536
530
513
497
493
497
501
505
508
509
509
510
512
512
513
515
514
514
514
515
517
517
518
519
520
520
520
522
523
525
527
529
532
535
538
540
543
546
547
548
549
548
548
545
541
538
534
529
523
517
513
510
507
505
503
501
498
499
499
499
498
498
497
497
496
497
496
497
498
498
499
499
500
499
499
499
500
500
499
499
500
499
498
498
499
499
498
498
498
498
498
498
499
499
499
498
499
499
500
502
501
501
500
501
501
500
500
500
500
499
500
501
503
504
505
505
505
505
506
506
505
505
505
504
502
501
501
501
500
501
501
501
500
501
501
501
501
501
503
508
516
526
533
535
525
507
494
492
498
504
506
507
507
508
509
509
510
511
512
512
513
513
514
515
515
515
515
517
517
518
518
521
523
524
525
528
530
532
534
539
542
543
543
544
543
541
539
535
529
524
520
515
510
505
503
500
497
496
496
497
496
494
494
494
494
494
495
495
495
496
497
498
498
498
498
499
499
500
501
502
502
503
503
503
503
505
504
504
503
502
501
501
501
502
503
501
501
501
501
501
502
501
500
500
501
501
500
500
500
500
499
501
502
502
502
503
505
506
507
508
509
511
511
511
511
509
509
509
508
508
507
507
507
506
506
508
509
509
509
508
507
507
513
519
527
537
544
542
526
507
498
500
505
509
510
510
510
510
511
510
509
509
509
509
509
511
512
512
513
515
517
518
520
522
524
525
527
528
530
532
535
537
539
540
543
545
544
543
542
540
537
534
530
525
519
515
510
507
504
501
500
497
496
496
495
494
494
495
496
495
495
495
495
495
496
496
495
494
494
495
495
495
497
497
496
496
497
497
497
497
498
499
499
498
498
497
497
497
496
496
495
496
497
498
497
498
498
498
498
500
501
501
503
505
506
507
508
509
509
509
510
511
510
507
505
504
504
503
503
502
502
502
503
503
502
503
502
502
502
504
510
519
529
537
540
533
515
498
491
493
497
501
504
506
508
510
511
512
513
513
513
513
514
515
515
515
516
518
518
519
520
522
524
526
529
529
530
533
537
538
540
541
543
544
544
544
545
542
537
533
529
523
517
513
510
506
503
502
501
499
498
498
498
498
499
500
501
499
499
499
499
499
501
500
500
500
501
501
502
502
503
502
502
502
503
502
501
502
503
504
505
507
506
506
505
505
504
504
504
505
505
504
504
504
504
504
505
505
506
507
509
511
511
510
511
512
512
512
512
511
509
508
508
506
505
505
506
507
506
506
506
506
506
507
507
507
511
518
525
535
542
542
527
507
497
499
504
508
511
513
513
513
515
515
515
515
517
517
519
520
521
522
522
524
523
523
524
526
528
528
529
532
536
537
537
540
543
544
546
549
551
551
550
547
544
539
535
531
525
520
515
511
507
504
502
501
501
499
499
499
498
497
498
498
498
499
499
499
499
500
501
501
501
501
502
502
501
503
502
502
501
501
501
501
499
499
498
497
497
496
496
495
496
496
497
496
497
498
497
497
497
497
496
495
494
494
494
495
497
498
498
499
501
502
503
504
505
505
505
506
508
509
508
506
503
501
500
502
502
501
500
500
499
499
500
500
499
499
498
498
501
508
517
530
539
540
528
507
493
493
499
503
506
507
507
507
507
509
510
510
509
509
511
512
512
513
515
517
518
519
520
520
521
523
525
526
529
534
538
541
545
548
551
552
554
555
553
552
551
546
540
534
528
522
517
514
510
507
503
502
501
501
500
500
499
499
498
499
499
498
498
498
498
497
498
499
499
499
499
499
498
499
499
499
498
497
499
499
499
499
499
499
498
498
498
497
497
498
498
498
498
498
499
497
497
498
499
499
498
499
499
499
500
501
500
499
499
501
502
502
503
504
504
504
505
504
502
501
500
498
498
498
498
497
496
496
496
496
496
497
498
497
496
498
504
512
522
531
534
527
509
492
486
491
496
500
501
501
502
504
505
505
505
507
507
508
508
508
509
509
510
510
509
510
512
514
514
517
520
522
523
526
529
532
535
537
538
538
539
539
538
536
533
529
524
519
513
509
506
502
500
498
497
495
494
493
491
491
491
491
491
491
492
492
492
492
493
495
495
494
495
494
494
496
497
498
497
498
499
499
499
500
501
501
501
500
500
499
500
500
500
499
499
501
501
500
501
502
503
504
505
506
505
505
507
508
508
509
510
509
505
503
502
502
502
501
502
502
502
503
504
504
505
506
506
505
505
510
518
526
534
538
535
521
504
496
498
503
507
510
510
511
511
512
511
513
514
515
514
514
516
517
517
517
518
519
520
520
521
523
525
528
530
531
534
537
538
540
542
544
546
546
546
545
543
540
536
533
529
523
517
513
510
507
504
501
501
500
500
499
498
497
498
498
499
500
501
499
499
500
501
502
502
503
504
504
505
506
506
506
506
506
505
504
505
506
506
505
506
507
507
506
507
506
504
504
504
504
503
502
503
503
502
502
502
502
503
504
504
504
505
507
508
509
509
509
510
510
511
512
513
511
510
509
507
507
507
507
508
509
509
509
508
507
509
510
510
509
513
519
525
533
541
543
533
515
501
501
505
511
514
513
512
512
513
514
514
516
518
518
517
518
518
518
519
521
521
521
521
522
524
525
526
528
530
533
537
541
544
545
548
550
550
549
550
549
547
543
539
534
528
524
519
514
509
507
505
503
501
501
500
499
498
497
497
497
498
500
500
498
498
499
501
501
500
501
502
501
502
502
503
503
503
503
503
504
505
504
504
505
507
506
506
505
505
505
506
507
509
509
507
507
506
506
506
506
507
506
507
507
506
506
506
505
505
505
505
504
504
504
505
508
509
509
510
510
510
510
510
508
506
505
504
503
504
503
505
503
502
503
505
505
506
507
509
509
509
512
517
526
539
550
553
542
521
505
502
507
511
514
514
514
514
514
513
512
514
514
514
515
515
514
514
514
514
515
516
517
520
521
523
525
527
529
530
533
535
536
537
539
540
541
542
541
539
537
535
531
526
520
515
510
505
500
497
495
493
490
489
489
489
489
490
490
490
490
491
491
491
492
493
492
490
491
492
492
491
491
491
492
492
491
490
490
491
492
492
493
494
494
493
491
489
490
491
490
490
491
491
490
491
491
491
492
493
492
492
492
493
493
494
494
494
495
494
495
495
495
496
497
498
498
499
500
501
502
502
501
500
499
498
499
498
498
498
498
497
497
496
496
496
498
498
499
499
501
509
518
526
532
532
520
501
488
489
495
500
503
504
505
506
507
508
508
508
508
509
509
509
510
511
510
510
513
514
514
516
519
521
523
525
528
529
530
532
534
536
538
541
542
542
540
538
534
530
526
522
517
511
507
504
501
498
496
495
493
492
492
491
492
492
492
491
491
492
494
494
493
493
494
494
494
495
496
498
499
500
500
500
499
501
501
501
501
503
503
503
502
503
503
502
502
502
503
503
503
503
502
501
502
503
506
507
508
508
509
510
511
510
510
509
507
504
503
503
504
503
503
502
502
501
499
500
499
498
497
497
498
503
511
519
525
526
519
504
489
484
489
495
499
501
502
502
503
504
505
507
508
508
508
509
510
510
511
511
511
513
515
516
518
520
521
523
524
526
527
530
534
537
540
541
541
542
542
541
539
536
531
526
521
516
511
508
505
503
502
502
501
500
499
499
499
499
499
498
499
498
498
498
498
498
497
498
499
499
498
499
499
499
500
500
501
501
500
501
501
501
500
501
502
501
501
501
500
499
500
500
499
499
499
499
499
501
503
505
505
505
508
510
510
510
511
509
508
507
505
503
502
503
504
503
503
503
503
503
503
503
504
504
504
508
515
520
526
533
534
526
510
500
500
506
511
514
513
513
516
517
516
515
515
514
515
516
517
518
518
518
520
520
521
524
525
527
529
533
535
537
541
544
545
546
549
550
549
550
550
549
548
546
542
537
532
526
522
518
513
510
509
508
506
505
504
504
504
505
505
505
504
505
505
505
505
505
504
504
505
505
505
504
505
506
506
503
503
504
505
504
504
504
503
504
504
504
505
506
507
505
502
503
504
504
502
502
503
502
501
502
503
503
501
502
504
505
506
508
508
509
510
511
511
510
509
508
506
504
502
501
500
499
501
502
501
501
503
503
503
502
502
504
509
516
524
533
536
530
512
495
490
495
502
504
503
505
507
508
508
508
507
506
507
507
508
509
510
512
514
514
515
516
516
517
519
521
522
524
528
530
532
535
539
541
543
544
545
544
543
542
540
535
529
524
518
512
508
505
502
500
497
497
497
496
496
496
496
496
495
495
494
493
493
494
496
496
496
496
497
498
498
499
498
497
499
499
497
496
497
498
497
497
497
497
496
496
496
496
497
499
499
498
497
498
498
497
497
499
499
498
497
498
498
498
499
500
500
499
499
501
503
504
505
505
505
505
507
508
507
506
506
504
503
503
503
503
502
503
503
502
501
501
501
500
499
500
503
509
517
525
532
534
525
506
493
491
497
503
504
504
504
506
507
507
508
510
510
510
511
511
512
513
514
515
516
518
520
520
521
523
525
526
527
530
532
534
536
538
539
540
542
543
542
540
537
534
530
526
521
516
510
505
501
498
497
495
494
494
493
492
493
493
492
493
494
495
494
495
496
496
495
495
496
495
495
497
497
497
495
497
497
497
498
498
498
497
498
498
498
498
499
500
500
500
500
501
502
502
502
500
498
498
498
499
499
499
501
501
501
502
504
505
505
505
507
508
509
509
510
510
509
508
507
507
507
508
507
507
506
507
507
507
508
507
506
506
510
518
526
533
538
536
524
506
496
497
502
508
511
513
512
511
513
514
514
513
514
515
515
516
517
516
515
518
519
519
520
522
525
526
527
528
530
532
534
538
540
541
543
545
546
545
545
544
542
539
535
530
523
518
515
512
509
507
505
502
501
502
502
501
500
500
501
502
502
503
