427
430
432
434
435
436
437
438
438
439
441
444
449
455
461
467
473
481
496
501
508
513
516
517
524
526
525
525
531
532
530
532
536
537
535
537
541
539
536
540
542
542
544
551
552
551
552
558
558
557
558
565
565
559
555
555
551
544
540
538
533
524
521
515
509
504
505
502
499
497
500
498
496
496
499
496
493
497
500
500
498
499
498
500
501
505
505
503
502
504
505
505
503
501
501
503
504
504
502
500
502
504
505
504
505
501
499
497
498
501
500
500
502
499
499
499
501
500
498
502
505
501
498
499
500
501
502
501
500
500
500
502
502
505
506
504
501
501
504
507
506
507
511
512
510
507
507
507
506
505
507
506
504
501
505
504
502
503
505
505
504
506
507
508
521
551
585
608
604
535
450
417
418
434
446
462
481
500
507
507
511
519
524
524
525
529
530
530
534
536
535
534
537
539
539
536
535
535
538
542
547
549
547
548
553
556
558
559
559
558
557
560
559
556
552
554
551
544
536
536
530
520
514
513
509
503
499
499
498
496
497
497
494
492
497
497
495
493
496
495
493
493
497
498
496
499
503
500
498
500
501
500
501
501
501
499
499
503
500
496
495
499
498
495
495
500
499
496
496
496
495
493
497
499
496
493
496
496
494
493
497
496
494
498
503
498
492
493
498
499
496
499
499
495
492
496
498
497
496
503
505
502
502
508
507
504
505
508
505
500
498
500
501
497
499
501
500
496
501
501
500
498
501
502
504
518
551
582
602
594
523
439
410
416
430
440
456
481
497
503
505
513
517
517
517
524
524
522
523
529
528
524
526
532
532
529
534
539
540
535
538
542
540
539
546
549
548
549
555
556
554
556
559
556
550
549
549
543
536
534
531
523
514
512
509
504
500
499
495
492
491
494
494
491
491
495
492
488
492
496
494
491
494
495
493
491
496
496
494
492
497
496
494
495
499
497
495
495
498
497
495
498
498
494
490
493
495
494
492
494
495
495
495
499
498
493
492
495
496
495
497
498
496
493
497
497
495
493
497
499
498
498
502
500
497
498
503
504
502
503
506
503
499
502
505
503
502
503
501
498
496
501
500
498
497
503
503
502
508
526
550
578
603
599
528
445
421
425
428
432
450
471
489
499
509
513
513
514
522
524
524
528
533
531
528
531
534
533
532
537
538
537
536
539
542
546
547
555
554
549
549
555
556
555
557
560
558
555
556
555
549
545
546
541
533
528
523
512
505
502
503
501
497
495
497
496
493
495
496
495
494
497
498
495
492
497
498
496
497
502
499
497
498
502
499
495
501
506
502
496
500
502
500
496
500
501
498
496
502
502
497
496
500
498
496
497
500
498
495
498
502
501
496
499
501
500
496
500
502
500
497
502
502
500
499
503
503
501
503
506
504
499
502
505
505
504
507
509
508
508
513
513
508
505
508
507
503
503
507
506
502
505
510
509
503
503
504
502
501
509
523
547
577
607
609
543
453
419
420
429
441
462
482
495
506
514
516
516
524
532
533
530
531
532
529
528
533
534
533
534
539
539
537
540
545
546
545
549
554
556
556
559
558
556
555
562
563
561
559
562
559
553
550
549
542
533
528
526
520
510
507
507
506
501
501
498
495
494
498
497
494
493
498
497
494
496
499
498
497
501
504
500
496
500
501
499
498
503
503
500
498
503
502
499
500
503
500
497
501
503
497
491
496
501
500
497
499
498
497
495
502
501
496
495
500
500
497
498
500
499
497
501
502
499
497
502
501
498
496
499
500
499
500
505
502
498
498
502
502
498
501
505
502
499
503
507
508
506
511
512
507
501
503
504
501
499
505
506
501
498
501
500
498
500
504
502
499
505
519
542
573
604
611
549
457
420
419
429
440
457
477
492
502
509
511
514
521
524
524
522
528
528
528
528
536
536
533
532
537
537
534
538
544
543
538
541
547
547
544
549
552
553
554
557
556
552
550
555
553
548
545
544
536
528
524
523
518
508
508
508
503
497
499
497
493
491
493
492
489
488
491
491
489
490
495
494
491
493
495
497
496
500
500
495
491
493
494
493
492
495
494
493
492
495
494
493
495
498
495
489
491
494
494
491
492
493
494
492
494
493
489
488
494
496
493
492
495
493
490
492
496
495
492
495
499
500
498
499
497
491
489
497
498
496
493
498
497
494
494
499
501
500
502
506
505
499
504
506
503
498
504
505
500
496
500
500
499
500
504
503
501
501
504
502
499
502
508
514
528
560
589
603
566
485
428
416
420
432
443
462
484
500
504
504
511
519
521
519
524
527
527
525
531
533
533
532
537
538
534
534
538
542
541
542
545
543
540
545
551
552
551
554
557
557
555
558
559
555
553
555
548
538
533
532
525
517
515
515
510
500
499
499
497
493
496
495
493
491
494
496
497
496
498
495
493
494
499
499
495
498
501
499
496
500
501
501
498
502
503
499
497
502
500
498
499
504
505
498
495
500
499
495
496
497
496
493
498
500
497
495
500
500
498
497
501
500
499
498
501
498
495
498
501
498
496
501
503
501
501
507
509
507
509
514
513
509
506
508
507
502
501
503
502
499
501
504
504
501
504
504
502
500
508
513
523
549
586
608
600
533
455
424
421
431
444
456
472
493
506
509
511
520
523
524
526
533
534
532
534
537
536
534
535
541
540
536
540
545
546
543
548
551
551
551
559
560
559
561
566
564
562
562
566
564
562
559
555
548
538
534
530
522
515
515
512
506
501
503
499
496
496
500
498
493
494
499
498
496
499
501
498
495
500
502
499
496
501
501
499
498
503
503
500
500
502
500
502
506
509
503
497
499
502
500
496
498
499
497
494
498
498
496
495
501
500
496
496
499
498
496
500
502
502
502
504
501
499
496
500
499
496
496
500
499
497
498
500
499
499
502
506
505
504
511
512
508
504
507
506
502
499
503
504
502
500
503
502
497
496
503
503
500
500
503
503
505
516
533
559
587
610
588
502
427
415
422
432
445
469
488
498
506
515
518
519
526
528
526
525
531
531
529
527
533
534
532
532
537
537
536
536
543
545
542
542
547
551
551
556
560
558
553
556
558
557
552
555
554
549
544
543
536
529
523
521
514
508
507
506
500
493
494
496
494
490
492
492
489
486
492
493
491
491
495
494
491
494
498
497
496
499
501
498
495
499
499
496
493
498
498
494
493
497
496
492
492
497
498
497
496
496
492
488
493
496
493
489
493
494
493
491
497
498
497
496
500
500
495
494
496
494
492
496
498
496
494
499
501
498
496
502
502
497
495
500
501
499
500
506
506
503
507
511
506
500
502
505
502
498
502
503
502
499
503
503
498
494
500
501
499
506
525
551
579
604
593
515
435
415
418
430
439
459
478
491
498
507
511
512
514
520
521
521
524
529
531
526
529
534
532
528
530
532
532
532
537
538
537
539
546
547
546
548
553
554
553
556
559
556
553
556
557
552
543
540
537
532
522
519
515
509
504
505
502
496
495
497
496
492
492
494
491
487
489
491
491
491
496
496
495
495
499
499
500
499
498
496
494
496
501
499
494
495
496
494
490
495
496
494
493
497
494
491
492
497
497
493
491
494
492
489
492
496
495
494
496
496
493
493
498
497
493
492
497
499
495
495
499
500
498
500
504
504
499
501
505
505
501
505
504
503
501
504
504
502
498
499
496
494
496
501
500
497
500
504
508
513
536
565
590
597
562
480
427
419
430
436
442
457
482
497
503
510
516
518
518
524
527
527
525
530
533
532
530
536
536
535
535
539
540
537
541
548
545
542
547
551
550
548
554
562
562
555
554
556
555
552
553
550
544
540
538
532
523
519
517
511
507
508
506
501
496
499
503
500
493
495
497
496
496
501
502
499
499
503
502
498
499
503
502
501
507
507
501
495
500
502
501
498
502
501
496
495
500
499
497
498
501
502
501
503
504
498
494
498
499
499
497
501
502
501
499
503
502
500
502
506
505
501
501
505
503
500
507
511
508
503
507
507
507
510
516
515
508
503
511
512
506
502
505
502
497
500
507
507
501
501
503
504
502
509
518
531
556
590
613
599
524
447
420
420
435
453
473
491
506
513
514
520
530
529
523
522
529
529
526
526
534
534
531
531
535
535
534
542
547
544
539
543
546
547
546
550
552
552
552
557
558
556
558
564
559
550
545
543
539
534
532
528
522
512
509
506
503
500
501
499
497
495
497
497
494
492
495
492
488
489
491
492
493
498
499
498
496
500
501
497
492
498
499
498
498
500
495
492
498
504
500
493
494
497
496
494
500
501
498
495
497
493
492
497
504
499
491
490
496
496
492
495
501
499
494
497
499
493
488
497
501
499
497
503
505
504
501
503
504
501
502
507
504
499
501
502
499
499
503
502
497
494
499
499
497
494
499
500
503
511
535
567
590
602
565
475
417
413
426
440
452
472
488
497
500
511
516
514
515
523
522
518
519
525
526
526
529
530
528
527
535
542
537
528
532
535
537
537
544
547
547
547
549
549
551
551
550
548
547
550
552
548
539
535
530
525
521
522
514
503
495
497
493
491
493
494
490
486
489
495
493
487
490
494
496
494
497
496
491
490
497
496
492
492
496
495
491
493
498
501
497
495
495
492
491
495
500
500
496
498
495
489
487
493
494
492
493
497
495
493
499
505
498
491
495
497
495
493
498
501
499
497
506
510
507
501
503
503
501
498
498
495
491
493
498
499
498
504
505
502
497
501
504
509
528
564
591
598
563
492
442
426
430
439
447
458
479
495
501
503
511
516
518
522
525
522
523
522
524
523
523
524
530
530
528
531
538
539
540
543
541
540
539
545
547
549
549
552
551
549
548
552
552
548
547
549
545
537
532
526
521
512
508
504
502
498
499
497
493
492
496
498
502
505
502
491
486
491
496
497
495
498
499
498
500
512
509
499
492
496
500
501
503
505
503
497
494
497
497
495
501
506
501
493
497
501
499
495
499
498
495
493
500
502
500
498
499
499
499
501
502
501
499
505
509
504
500
503
504
503
500
502
501
499
501
507
505
501
498
500
500
501
505
509
514
528
557
588
604
573
503
448
437
441
452
457
464
479
498
505
506
510
520
524
524
521
520
521
521
527
525
522
521
528
531
531
533
539
536
534
534
541
542
536
537
544
548
546
548
551
551
549
554
555
550
547
550
546
536
527
525
520
509
503
503
501
497
498
499
497
492
496
496
492
487
495
499
495
491
494
494
493
496
503
502
496
496
499
499
498
501
502
499
498
500
500
498
498
506
504
496
491
498
499
496
497
501
497
491
494
497
497
496
500
503
501
495
499
503
499
497
504
505
503
502
511
513
508
508
509
506
499
500
502
501
496
501
507
503
493
495
498
498
497
501
503
507
526
558
585
600
589
526
453
428
436
447
454
464
487
502
506
509
519
519
513
514
522
525
522
524
528
527
526
531
536
538
536
543
544
534
529
536
540
540
543
549
551
550
552
557
558
555
556
557
555
551
552
551
545
536
535
531
523
516
519
513
503
500
505
502
494
492
494
494
491
495
498
498
497
498
498
499
499
503
500
498
500
508
503
498
501
504
502
499
500
504
504
501
505
506
502
498
503
507
507
502
503
502
500
497
499
496
494
496
501
500
499
501
501
498
499
503
503
498
496
501
503
503
504
510
509
505
503
506
505
501
501
503
498
494
500
503
499
497
503
503
500
497
503
502
502
513
545
578
600
602
544
457
421
428
444
455
468
489
501
503
503
514
520
518
517
524
523
520
521
527
528
528
532
536
534
530
533
537
541
538
538
538
540
540
547
548
546
548
556
557
553
555
563
560
550
546
548
544
536
536
532
526
516
512
509
505
496
498
497
493
492
494
493
491
494
498
495
491
495
498
495
489
494
496
494
491
495
497
497
496
502
503
500
499
502
501
497
499
502
497
492
495
499
498
493
496
497
495
494
499
501
498
494
499
500
495
494
495
491
490
494
499
499
498
503
500
494
491
499
504
501
499
503
502
501
503
509
510
505
502
503
501
496
496
497
497
498
502
499
496
495
500
500
498
500
509
520
543
574
605
607
542
458
423
419
428
445
465
485
495
502
505
509
514
520
521
518
517
524
525
521
523
528
528
526
531
537
538
534
536
539
541
541
543
542
540
542
550
551
548
550
559
559
552
551
554
553
546
545
543
536
525
522
519
513
507
510
507
498
491
493
494
495
497
495
490
488
491
494
493
490
496
498
495
493
498
499
498
496
499
499
496
493
496
495
494
497
501
501
497
498
497
494
491
495
496
494
491
495
496
492
491
498
496
490
491
496
497
495
495
497
495
492
495
498
497
496
499
497
494
493
499
499
497
498
501
498
495
497
504
506
503
505
503
501
503
508
503
498
496
499
496
493
493
498
498
495
495
500
502
505
521
544
570
588
591
535
457
423
425
432
440
453
475
490
496
501
510
514
514
517
521
521
518
522
527
527
526
528
528
527
528
536
538
537
534
535
534
534
537
544
546
545
547
549
549
548
554
556
550
544
546
544
540
535
535
529
521
513
513
509
503
500
499
495
491
494
497
493
489
493
494
492
489
494
495
495
494
498
498
497
497
501
499
496
496
499
498
494
497
500
498
496
503
503
499
495
498
496
494
494
500
498
493
492
498
499
497
497
498
497
494
500
503
501
495
495
497
498
498
500
501
499
499
503
502
498
499
505
506
503
504
506
505
503
505
505
501
498
503
503
498
496
503
502
497
497
504
505
502
504
514
529
554
586
607
584
508
448
431
433
437
450
464
480
494
505
510
515
518
523
522
522
525
530
530
526
529
531
530
529
536
539
537
537
542
541
538
539
546
547
546
548
555
555
550
554
556
555
551
554
553
549
544
546
542
535
529
528
522
514
510
507
501
497
499
503
501
497
499
498
494
494
500
503
500
496
499
499
495
495
501
502
500
500
500
498
497
501
504
505
504
506
502
498
496
501
500
499
498
499
497
496
498
502
502
498
498
498
496
494
498
501
501
500
502
500
498
496
501
501
500
501
503
499
496
500
503
503
501
503
504
502
501
505
507
507
507
515
513
505
500
504
505
506
510
508
501
495
498
505
504
499
501
504
503
501
516
537
565
595
615
576
487
434
431
438
446
456
474
491
500
509
518
519
516
519
523
523
522
527
529
531
533
535
531
528
530
538
540
537
539
541
540
539
544
550
552
548
551
553
553
551
555
556
554
552
555
552
545
540
539
534
524
522
521
514
503
503
501
496
494
499
496
491
489
495
495
493
493
495
494
494
497
499
498
494
496
498
498
497
501
502
500
498
502
501
496
495
501
499
496
499
502
498
493
497
500
498
495
498
499
494
489
493
496
497
496
497
494
489
490
498
500
496
498
502
501
496
495
494
494
493
498
500
498
495
498
498
498
496
501
501
499
500
506
506
503
506
508
506
505
509
510
507
503
508
507
504
500
505
506
503
501
508
508
499
495
498
497
497
505
513
525
551
585
610
596
521
451
428
431
442
453
464
476
492
506
510
511
516
522
519
516
522
527
528
528
533
536
532
525
528
531
531
532
540
542
538
537
542
544
544
549
552
551
548
551
552
549
547
551
553
550
545
542
537
532
531
531
523
515
511
508
501
493
495
496
496
496
500
497
491
489
496
497
495
492
496
496
495
496
499
497
495
499
503
501
496
498
500
500
497
500
499
496
495
499
497
495
495
501
499
494
495
500
500
496
496
497
498
495
499
500
500
497
500
499
498
498
504
505
499
496
499
499
499
502
504
502
498
499
502
502
500
505
506
501
498
503
504
500
500
505
507
505
505
508
508
506
511
513
510
507
510
508
504
502
507
507
504
502
503
501
498
500
505
505
502
503
509
519
540
575
602
607
549
471
434
429
435
448
462
482
496
507
510
514
518
522
521
520
525
534
533
525
525
530
531
531
536
536
535
535
538
539
540
542
545
542
542
546
552
551
548
554
557
554
551
555
555
550
544
547
542
534
530
531
526
517
512
511
504
497
498
504
501
494
495
496
496
493
498
498
493
490
496
498
496
496
501
503
500
499
500
498
498
502
503
500
496
498
500
499
495
498
498
495
495
499
500
497
497
500
496
493
495
498
495
491
495
498
497
497
500
498
494
493
500
501
498
497
501
502
499
497
499
498
494
499
503
501
497
498
499
499
495
500
503
501
497
501
503
502
502
506
506
505
506
509
505
499
500
502
500
499
503
502
499
497
502
501
498
496
502
502
499
499
506
516
537
571
600
603
540
460
426
425
433
445
457
475
490
503
507
507
511
520
521
518
521
526
528
527
528
529
529
528
532
532
530
530
537
539
536
534
541
544
543
546
550
550
547
550
554
552
548
550
550
547
542
544
542
535
528
525
520
513
507
507
504
501
500
501
497
493
494
498
500
497
497
495
492
490
497
498
497
495
500
500
496
496
499
499
500
502
503
501
498
503
502
496
492
499
502
496
492
496
496
494
494
499
501
499
499
500
494
490
494
499
500
496
496
496
493
493
501
504
499
496
502
502
495
494
501
502
499
500
501
499
497
501
506
505
501
504
505
502
501
508
509
505
502
507
508
504
501
504
503
499
500
503
503
498
501
502
501
500
506
508
516
540
577
598
601
550
471
431
427
434
443
453
468
489
502
506
506
515
523
525
520
522
524
523
524
530
530
528
528
533
534
533
536
540
539
537
541
542
541
540
548
552
549
547
555
557
555
553
554
551
547
546
547
541
531
529
527
522
515
513
511
507
501
502
500
495
494
497
496
493
492
497
497
494
496
499
500
497
500
500
498
495
500
502
500
497
500
501
499
499
504
502
498
498
504
503
495
495
500
499
494
497
499
497
496
502
504
500
494
496
496
495
496
504
502
496
496
499
500
496
500
503
502
499
501
503
502
499
503
504
502
500
502
502
501
503
506
506
503
503
506
506
505
510
511
506
499
504
505
504
504
507
502
495
497
503
502
499
502
505
504
501
508
520
542
570
601
609
551
461
427
428
434
443
463
484
496
501
508
512
513
518
524
524
523
526
527
525
523
529
534
534
532
536
535
534
537
542
541
537
540
547
547
545
549
552
550
547
553
556
554
551
554
552
545
542
543
537
529
526
526
519
507
503
505
502
499
500
498
493
491
496
496
494
491
496
499
499
498
500
498
498
499
503
499
495
500
504
501
496
500
502
500
499
502
501
500
498
502
501
496
493
497
498
495
497
499
497
494
498
501
500
496
497
498
499
497
498
495
492
492
499
501
498
495
497
500
499
501
504
501
496
499
502
498
494
497
500
501
500
504
506
503
502
507
509
507
507
508
504
500
503
504
500
497
499
500
499
498
502
502
500
499
504
504
505
518
553
586
605
593
524
449
425
431
440
447
462
486
500
503
505
514
518
519
522
527
523
521
525
533
534
529
527
528
531
531
535
538
539
537
541
545
546
543
548
549
547
547
554
555
553
554
557
555
551
553
551
544
536
537
536
532
521
516
510
506
503
505
500
495
496
499
497
493
496
500
499
496
499
498
496
495
498
496
494
494
499
499
496
496
500
500
498
498
499
499
499
502
501
497
492
493
493
491
491
496
495
494
494
499
497
493
494
498
500
496
496
497
495
492
496
499
497
494
501
501
497
494
500
500
498
497
501
500
496
498
502
501
498
503
507
503
498
504
509
509
507
508
505
504
503
506
503
498
498
503
503
500
500
503
503
499
501
502
504
505
519
541
570
594
604
546
460
423
426
433
440
453
476
493
500
506
510
510
511
518
520
520
520
528
529
526
526
531
532
530
531
536
536
531
535
541
540
536
541
545
546
544
548
551
553
550
553
551
547
546
550
549
542
539
539
532
521
518
516
510
501
502
501
496
493
498
498
493
491
496
495
496
498
499
495
492
494
497
496
493
497
498
495
495
501
501
498
497
502
505
501
497
499
497
494
495
498
497
492
494
498
498
494
496
497
497
496
499
502
499
492
495
498
497
495
497
496
494
496
501
502
498
500
502
501
500
502
500
496
495
504
507
505
502
507
510
511
508
508
503
500
501
504
502
498
501
502
501
500
507
509
503
499
504
506
505
509
532
560
587
605
583
501
437
430
438
443
450
468
488
498
501
509
515
517
518
526
527
524
526
531
531
530
536
540
539
534
538
541
538
534
540
542
542
542
548
549
547
549
556
556
555
557
561
559
554
555
555
551
543
539
534
528
521
520
516
510
506
509
507
502
500
501
498
496
498
501
498
493
495
497
495
493
498
500
499
498
502
503
500
499
503
502
501
502
506
503
496
498
503
502
499
502
501
497
496
499
497
496
494
497
496
493
496
501
500
497
500
504
501
495
496
498
496
494
501
501
498
496
500
500
499
498
503
502
497
495
499
499
496
497
501
503
499
502
504
502
500
506
509
508
505
509
506
501
497
502
504
503
506
506
499
493
497
503
501
498
502
505
508
520
553
584
604
597
537
462
430
427
438
448
462
482
498
503
505
512
518
519
517
522
525
527
526
531
534
529
525
530
532
531
532
536
537
535
540
545
546
540
543
548
549
549
553
552
549
549
554
552
547
544
547
545
538
535
534
527
517
514
514
512
507
503
498
495
491
494
493
491
491
495
495
492
491
494
495
493
495
497
496
492
496
502
499
494
499
501
500
498
502
500
497
495
499
498
495
498
500
498
495
497
499
498
494
497
498
498
496
500
499
496
494
498
497
493
493
498
498
494
496
499
497
495
500
503
498
493
498
500
499
497
501
500
499
499
501
500
498
503
510
509
503
503
506
507
504
506
509
506
501
504
505
505
501
502
504
504
503
505
502
498
500
506
505
500
506
523
549
578
606
603
531
449
428
430
436
446
469
489
498
503
509
511
511
518
524
525
522
529
532
529
527
534
535
533
529
533
536
536
536
539
539
539
542
547
551
547
546
548
548
547
554
556
552
550
556
553
548
543
544
539
531
525
524
518
508
505
507
505
499
499
503
502
495
494
495
496
494
495
496
494
497
503
499
495
498
503
504
500
501
503
499
497
503
505
500
497
504
502
500
502
507
503
499
496
498
498
495
497
499
496
494
497
499
499
499
504
504
500
497
500
499
493
492
498
497
494
496
499
497
495
500
504
502
494
496
497
494
492
497
498
496
494
498
499
498
499
504
503
500
501
502
502
500
504
507
507
503
506
507
503
499
504
504
501
499
503
502
498
496
500
501
498
502
503
500
500
519
546
575
597
598
533
451
420
426
435
443
456
478
491
497
503
511
513
513
517
522
523
521
527
528
525
523
528
529
527
527
534
535
532
533
539
537
534
539
544
542
540
545
548
549
548
552
552
548
548
553
551
542
535
536
531
522
517
516
511
506
507
504
497
491
496
498
496
493
496
497
496
491
492
492
493
494
498
496
492
493
495
495
493
497
499
498
494
499
499
501
500
499
494
492
493
500
501
497
494
495
494
491
497
502
498
491
496
498
497
496
498
496
494
493
498
497
496
495
499
497
494
496
500
500
498
501
503
497
492
497
501
499
497
503
505
503
503
508
508
504
504
506
506
505
506
504
499
498
502
502
498
495
499
501
502
500
503
502
502
513
542
577
598
599
549
467
428
430
439
443
450
471
489
498
501
510
514
516
520
526
525
522
523
530
532
530
532
533
531
531
538
540
536
534
541
541
540
540
547
550
549
548
554
556
554
555
557
557
555
555
554
548
542
545
541
532
520
518
517
511
504
504
503
499
498
501
498
492
494
500
498
496
501
502
499
497
503
504
500
495
501
506
504
501
504
503
500
500
504
504
500
502
504
503
502
504
502
499
498
502
501
499
498
501
499
496
498
502
502
500
501
501
498
496
502
507
505
499
501
501
500
497
502
500
498
497
501
501
500
501
503
502
500
501
502
500
498
503
504
502
499
505
507
505
505
511
512
509
510
515
510
504
506
509
506
501
502
505
504
501
504
504
501
499
505
507
512
519
535
563
589
607
580
497
437
426
434
444
452
470
490
500
504
512
517
520
519
525
526
525
527
530
530
528
530
535
532
527
529
535
537
534
536
539
540
541
548
549
546
546
553
555
553
554
557
554
551
551
550
547
542
544
541
530
521
521
517
511
505
505
498
493
493
499
497
492
491
494
492
492
495
497
494
491
497
500
496
491
496
498
497
498
502
499
495
495
501
501
500
499
500
498
494
496
497
495
494
498
498
498
495
496
495
494
495
500
499
495
496
501
500
494
495
496
495
493
496
498
497
496
502
504
499
496
501
501
500
499
502
500
497
499
502
501
498
500
502
501
497
502
505
506
503
507
508
507
507
508
505
505
507
516
514
506
505
507
505
501
503
508
507
503
503
504
504
504
508
506
503
502
510
525
553
586
614
599
520
445
426
431
441
454
471
487
496
505
509
512
514
522
523
521
525
530
530
527
527
531
531
528
533
537
534
531
536
538
539
540
545
544
542
545
550
549
550
552
554
551
548
552
553
549
545
546
543
537
529
527
522
516
511
510
505
500
497
499
498
492
493
496
495
492
494
496
494
491
495
496
494
493
499
501
498
495
499
497
495
496
498
496
492
496
500
498
493
494
497
499
496
497
495
492
490
495
495
491
491
495
495
491
493
497
495
493
495
498
497
494
497
496
492
489
496
497
494
493
497
496
492
493
497
496
495
497
501
501
497
499
500
500
497
501
503
502
500
505
503
502
504
509
508
504
504
507
503
496
497
499
500
497
501
503
501
498
502
501
499
499
508
521
542
571
596
599
541
463
430
426
428
439
453
468
483
501
508
509
510
518
521
519
518
524
526
526
528
533
530
524
527
534
535
533
537
538
534
534
543
544
541
543
551
551
548
548
553
553
550
553
554
548
544
548
548
538
529
529
525
516
507
512
512
505
497
499
499
496
494
498
499
496
497
498
497
492
492
495
495
493
497
497
495
494
500
500
498
500
505
504
502
504
502
496
493
498
501
499
496
500
501
500
498
501
501
500
500
503
502
497
496
502
503
498
497
499
501
498
500
501
501
498
502
502
500
499
505
503
498
496
503
504
499
498
502
502
498
502
506
507
506
511
511
508
508
515
515
510
509
513
509
502
501
505
505
503
503
504
504
502
505
506
504
501
506
511
516
529
565
597
611
581
503
442
427
433
446
456
472
492
505
507
507
514
520
521
520
526
531
531
528
534
534
531
532
537
537
536
537
539
537
534
539
544
546
544
549
552
555
556
560
557
554
554
560
560
554
550
553
548
539
536
536
528
519
517
514
509
503
503
502
499
496
497
494
491
491
497
497
492
492
497
495
494
497
499
498
496
501
503
500
495
497
499
499
499
502
501
499
499
503
502
497
500
502
499
495
497
497
495
494
501
501
496
492
496
497
496
497
500
497
495
497
500
497
494
499
502
500
495
497
499
497
495
500
498
494
495
499
499
497
499
502
501
498
500
502
500
501
505
504
500
496
501
503
504
505
511
510
505
504
505
502
501
502
505
501
495
499
501
498
495
501
506
505
500
505
513
529
556
590
612
595
517
449
429
430
439
452
470
486
501
508
508
508
516
523
526
525
528
529
527
526
531
534
532
535
538
535
531
535
539
538
536
541
545
544
542
549
552
551
551
559
560
555
554
559
556
548
546
546
542
535
532
528
523
514
511
507
502
498
502
502
497
493
496
494
490
491
499
499
493
491
495
494
492
496
498
496
493
497
500
499
495
499
502
499
495
496
496
495
497
502
500
495
494
496
494
489
491
495
494
491
494
496
493
490
493
493
492
494
499
497
491
490
494
495
491
494
494
492
489
494
495
494
492
496
496
493
493
498
495
490
492
496
495
494
496
499
496
494
499
500
497
495
502
504
503
500
503
499
496
499
503
499
493
496
502
497
491
493
498
499
496
499
501
500
502
518
542
570
594
599
536
453
420
424
431
437
451
471
487
496
504
508
511
511
518
519
518
515
521
522
522
522
526
526
524
526
530
530
529
534
535
533
531
539
541
540
539
545
545
543
546
551
549
546
545
545
540
535
535
533
525
516
515
512
505
496
495
493
488
482
485
485
483
484
486
482
478
480
484
484
482
486
487
482
477
484
486
481
480
487
489
487
484
486
485
481
482
487
486
481
482
483
480
478
481
483
482
481
486
486
483
479
484
483
479
478
484
484
480
479
482
484
482
483
485
484
482
486
486
484
481
486
484
483
483
486
484
482
484
488
487
486
489
496
497
492
493
495
495
491
492
490
488
485
488
486
485
486
491
493
489
486
491
493
496
513
540
566
585
584
520
442
413
420
427
433
445
469
484
489
493
502
505
504
508
512
511
509
513
517
517
514
518
520
520
520
528
530
524
520
526
528
528
531
539
541
541
541
542
539
538
545
550
548
544
542
539
534
528
527
521
513
507
508
503
497
494
493
488
481
483
487
485
480
483
485
484
482
487
488
484
483
490
490
487
487
491
488
485
487
493
493
487
489
492
491
491
495
494
491
490
495
494
490
489
492
491
487
489
493
492
490
491
493
490
488
493
495
494
494
496
494
492
494
499
495
492
493
495
493
494
497
500
501
497
495
494
495
497
498
496
494
492
496
498
500
501
504
503
502
505
511
510
508
510
511
508
501
501
503
502
500
505
505
504
503
509
509
506
505
509
511
513
530
564
594
613
598
522
449
429
437
447
454
469
494
507
511
512
520
524
524
524
529
529
529
533
538
537
534
537
540
540
539
542
541
541
543
549
548
545
544
552
557
557
559
562
562
560
564
567
564
560
561
560
554
550
551
545
535
526
521
516
512
509
509
506
505
505
504
501
498
499
500
501
501
505
502
498
496
502
504
502
501
506
507
505
504
505
503
503
510
515
511
505
506
506
504
502
506
507
505
503
507
507
504
505
509
505
498
499
504
504
502
505
507
504
501
504
506
506
505
508
505
502
502
507
507
509
508
506
501
499
503
508
510
509
510
508
505
501
505
507
506
505
511
513
511
511
518
519
512
510
515
515
509
509
513
511
504
507
509
508
505
511
514
510
505
508
509
508
509
520
532
555
588
617
606
531
456
433
435
443
456
470
488
499
510
514
517
521
529
529
527
529
534
534
531
534
539
540
537
539
541
540
538
544
546
543
540
546
547
546
548
555
557
556
560
566
565
559
559
559
555
552
556
553
545
536
535
529
520
514
514
512
509
506
506
502
498
499
502
501
497
499
501
501
497
501
504
504
501
505
504
501
502
505
504
503
504
508
508
502
501
503
503
499
502
505
504
500
502
502
501
499
499
499
499
499
501
498
496
500
504
502
499
504
505
500
498
503
503
498
495
500
502
500
498
502
502
501
504
508
504
500
502
507
509
508
513
513
508
503
504
504
502
500
503
503
501
500
503
502
500
504
509
506
499
504
512
521
536
565
591
600
559
486
440
431
436
446
454
466
485
500
504
506
514
521
522
522
527
528
526
523
530
534
533
532
536
535
536
539
544
541
537
538
545
547
544
547
550
550
549
555
559
558
556
559
557
551
547
549
547
540
534
532
527
518
515
514
507
500
503
505
497
492
496
497
496
491
493
495
495
495
497
497
493
495
500
500
497
499
504
504
499
499
500
501
498
499
499
498
497
501
501
500
499
502
502
498
496
499
499
496
498
499
497
494
498
500
498
495
499
499
497
495
500
500
495
497
502
500
497
499
502
500
497
501
503
501
498
504
507
506
504
508
512
509
505
508
509
503
501
503
501
498
501
502
500
497
501
503
502
499
504
506
505
505
516
539
571
593
606
574
493
436
428
433
440
453
472
490
500
513
522
527
525
522
518
517
519
526
527
525
527
532
532
529
533
537
541
540
543
540
537
537
543
544
544
544
551
552
552
553
558
559
555
556
560
554
547
545
543
538
529
525
520
514
507
508
505
502
499
500
495
491
491
496
492
486
488
493
492
490
495
497
495
492
497
497
494
493
499
499
495
494
503
503
500
497
498
496
494
498
500
498
494
497
499
497
496
501
500
496
495
499
502
505
502
498
494
493
497
499
496
494
497
498
496
494
499
501
498
495
499
499
497
499
503
500
495
496
502
502
497
499
502
502
501
506
508
505
501
504
504
500
499
503
500
496
497
503
502
498
499
504
504
499
500
507
524
554
590
610
590
506
438
420
423
434
453
470
484
496
505
506
506
513
516
515
513
519
524
524
522
528
530
528
528
533
532
530
530
537
540
540
542
544
541
538
543
549
550
547
552
556
555
552
555
555
551
546
547
542
532
526
525
522
512
506
503
498
493
495
494
490
487
492
491
487
484
490
492
492
491
495
492
492
495
495
492
488
492
497
496
492
496
497
495
493
498
499
496
493
497
496
494
495
501
498
492
493
493
488
483
487
492
491
488
492
493
490
488
494
493
490
490
497
497
493
492
496
494
491
495
500
501
497
498
500
500
497
500
499
496
495
500
496
490
490
496
495
492
493
495
494
491
495
498
496
497
513
538
566
587
593
540
459
421
426
431
431
440
461
478
486
493
499
502
503
511
514
511
508
514
517
516
517
523
521
516
516
522
523
521
522
527
528
526
530
536
536
533
538
539
537
536
542
544
542
539
540
537
531
528
527
520
510
507
505
499
488
486
488
485
479
481
480
475
471
476
477
473
473
478
478
475
476
481
482
481
485
488
483
477
481
483
483
482
486
484
479
477
481
482
480
480
484
481
478
479
482
481
478
482
487
484
478
479
481
482
479
481
479
477
478
484
485
484
487
489
485
484
489
491
487
482
487
487
482
477
481
485
483
479
485
485
483
482
489
489
485
488
496
503
515
544
574
590
563
488
428
415
418
430
439
452
470
490
497
497
500
507
509
507
509
514
515
513
518
521
521
519
522
528
532
527
526
525
527
532
538
536
535
540
545
550
554
555
550
549
550
555
555
551
547
551
547
538
530
528
520
511
504
503
500
496
501
500
491
483
487
491
490
486
489
492
491
488
493
494
494
495
499
499
495
495
499
500
498
500
503
502
498
499
500
499
497
502
501
498
498
505
502
499
500
503
500
495
496
499
497
495
499
500
497
494
498
500
500
500
504
501
497
496
502
503
503
505
508
504
502
508
512
510
505
509
513
514
513
516
515
511
509
515
514
510
507
513
513
506
506
508
506
501
504
507
505
502
508
515
530
560
598
618
592
510
442
421
422
433
450
470
488
503
511
514
514
520
526
527
523
526
529
530
533
537
534
530
531
538
540
538
539
544
544
543
550
558
556
550
554
558
560
561
568
572
569
563
567
568
563
560
563
556
546
542
540
531
520
518
516
511
505
507
507
503
499
505
503
500
500
504
502
499
498
503
502
499
501
505
504
503
508
508
505
503
509
511
510
510
514
511
507
506
509
507
503
504
508
507
503
502
504
505
504
506
505
503
503
507
507
504
502
504
503
499
499
505
504
500
503
506
503
498
501
504
503
499
503
504
502
501
507
507
502
500
504
503
503
505
507
503
501
507
509
506
502
507
511
510
509
514
514
507
503
507
508
506
505
510
508
504
504
510
512
507
503
502
502
503
516
537
565
591
612
586
504
441
432
437
447
454
465
480
494
506
516
518
517
523
527
526
525
532
535
535
533
539
540
538
539
545
542
537
540
546
546
544
547
553
555
552
556
560
561
561
567
568
566
565
569
566
561
558
559
552
544
537
532
524
516
514
513
508
503
504
505
502
501
508
509
503
500
503
500
497
497
502
503
500
502
505
505
502
506
507
506
507
512
509
502
500
506
507
501
497
500
500
498
502
506
504
500
502
504
501
497
500
501
501
504
511
507
499
497
502
505
503
502
502
501
499
500
503
503
502
509
514
511
505
507
508
510
509
513
511
506
503
506
506
502
503
506
505
503
506
509
506
502
507
509
505
501
507
513
528
558
592
609
584
509
449
434
436
443
453
467
483
499
507
508
508
517
521
521
521
528
528
525
525
531
534
533
534
536
534
532
536
540
540
539
544
546
546
549
556
559
560
559
563
564
561
560
564
562
558
556
555
548
539
537
536
532
521
517
509
502
497
500
498
494
491
496
495
491
490
494
494
493
494
496
494
492
496
498
498
496
500
500
496
499
506
504
497
494
497
498
496
496
499
499
496
498
499
496
491
495
501
501
492
491
492
490
489
493
492
489
491
495
494
493
494
494
492
490
495
500
501
498
498
495
490
489
495
494
493
493
497
496
494
497
502
500
496
497
501
500
496
501
504
500
493
496
498
498
497
503
503
501
502
509
509
504
505
509
506
501
502
504
501
500
506
505
498
495
499
498
496
498
502
499
496
499
508
525
553
588
614
601
522
443
416
420
429
445
464
481
494
505
507
508
511
519
521
520
522
526
528
526
527
528
528
527
534
535
532
529
535
537
536
539
546
547
544
544
552
553
551
553
558
558
555
558
559
556
552
554
550
542
533
532
529
525
516
512
506
501
499
498
495
493
497
498
495
491
494
497
496
493
497
499
497
493
497
499
497
496
500
502
500
499
501
501
498
501
502
499
498
502
503
501
500
505
502
496
496
500
498
495
498
504
503
496
496
501
500
496
498
498
496
494
498
500
498
496
500
499
496
495
500
501
498
499
502
500
499
502
502
500
496
500
501
499
497
504
505
502
502
507
507
505
504
508
507
502
504
509
506
501
503
506
505
502
507
509
507
507
513
515
515
514
515
511
507
509
513
512
506
505
506
505
502
507
509
507
506
510
510
508
510
524
547
578
603
616
573
482
430
425
431
438
453
473
490
499
510
516
518
519
526
526
524
525
533
534
531
531
534
534
530
532
536
536
532
536
539
539
539
545
547
547
547
553
555
553
553
557
556
552
555
557
553
548
548
546
540
534
533
527
519
511
511
507
501
498
499
497
494
495
498
494
489
491
495
494
490
493
494
493
492
499
502
503
500
505
503
496
493
498
499
496
497
499
499
497
501
502
497
494
499
501
498
494
499
501
497
493
496
497
494
493
496
494
494
498
500
498
496
500
503
501
496
498
500
497
496
502
502
499
500
503
504
500
500
503
501
499
503
507
507
505
508
512
511
508
513
510
506
504
507
504
500
499
504
503
501
503
507
505
502
503
504
505
509
527
550
576
597
604
545
462
426
430
437
442
456
478
496
504
512
518
519
522
530
532
527
524
529
533
534
532
538
539
536
536
543
543
538
541
549
550
550
552
553
553
552
559
562
561
560
567
570
567
561
564
564
558
552
552
544
533
528
525
518
511
510
507
502
497
499
500
498
496
500
498
494
493
499
498
493
493
497
497
495
499
502
501
496
500
505
504
499
501
504
505
503
504
501
498
497
501
500
497
499
501
499
496
498
500
502
500
503
500
494
491
496
497
495
493
497
497
494
494
499
498
495
497
502
502
496
497
501
501
498
501
502
498
495
501
502
499
497
503
505
501
502
506
506
503
506
505
501
497
503
508
506
502
506
508
508
508
510
509
506
506
510
507
503
505
505
501
499
503
505
503
500
504
505
508
511
530
560
589
611
600
523
442
416
418
427
439
464
489
501
502
509
515
518
519
527
529
523
523
534
534
529
528
533
533
532
534
538
537
536
542
544
543
544
551
552
549
548
556
559
557
557
564
563
558
556
559
561
553
546
545
539
530
526
521
515
510
511
506
499
496
499
499
495
491
493
494
492
491
496
494
490
492
495
495
494
499
500
498
495
502
500
496
494
501
500
496
494
498
499
496
499
502
499
496
500
498
492
489
495
497
494
493
496
496
493
491
497
498
494
494
498
497
491
492
494
491
489
494
498
496
493
500
502
497
491
500
503
499
494
496
497
497
499
500
497
494
501
504
500
495
502
503
501
499
503
501
499
499
506
505
504
505
509
506
502
503
502
499
498
505
505
498
493
499
501
497
494
497
498
497
503
522
547
575
598
605
544
453
419
418
419
423
442
466
483
491
500
509
511
513
520
522
521
524
530
528
527
532
534
531
527
532
537
538
535
541
544
540
537
544
546
546
548
557
554
548
549
557
557
551
553
556
554
547
550
549
540
529
528
526
520
515
518
512
503
500
502
498
495
497
502
501
497
500
507
505
499
501
504
504
502
504
501
497
496
502
502
500
503
508
511
505
502
504
504
501
502
504
503
500
502
502
497
496
502
503
500
496
498
498
497
499
502
499
496
501
505
502
496
502
505
501
497
499
499
497
499
504
504
500
498
502
506
503
504
509
509
507
511
512
506
500
505
507
504
501
507
507
503
502
507
506
503
502
504
506
505
510
522
546
576
605
607
543
457
426
424
427
433
451
473
491
500
509
515
516
519
526
528
526
532
537
534
531
536
539
536
534
540
541
541
539
545
544
542
543
549
549
547
550
556
558
557
559
559
557
554
558
558
554
549
551
543
532
527
528
521
510
505
507
503
497
498
501
497
492
496
496
491
488
495
498
495
491
494
495
493
493
499
499
495
498
503
501
496
500
504
501
495
501
502
497
493
496
497
494
492
496
497
494
495
497
495
495
498
498
495
493
497
499
497
493
497
496
494
494
498
496
493
493
499
499
496
498
501
500
497
499
501
499
496
499
500
498
498
505
503
499
497
504
504
501
503
511
512
505
503
504
502
498
501
503
500
496
501
503
501
497
501
504
502
499
502
505
518
548
586
610
602
533
448
410
406
422
437
456
476
497
505
507
509
520
522
520
521
527
528
525
530
535
534
530
533
536
536
534
540
542
541
540
546
548
549
548
552
551
548
550
555
556
552
555
557
555
549
550
549
545
538
537
530
520
512
513
511
505
501
499
494
489
488
490
488
484
487
490
491
490
492
489
485
483
489
490
487
487
493
494
492
492
495
493
489
490
493
492
490
493
495
491
486
490
491
489
486
491
492
489
489
495
495
491
490
493
493
492
492
493
490
487
492
494
494
491
496
498
495
494
499
497
494
495
503
502
495
493
498
501
497
499
502
500
495
500
502
501
500
506
508
506
504
510
512
510
509
510
507
504
508
509
504
499
504
506
503
501
505
508
506
503
508
509
510
524
558
590
611
608
541
454
419
422
435
444
461
488
505
511
513
523
528
529
529
531
530
530
532
537
537
538
544
544
540
538
544
549
548
545
550
554
554
553
561
561
558
558
565
564
562
562
566
563
559
560
562
556
548
549
546
539
533
533
526
517
512
514
512
506
502
505
503
498
498
504
505
502
503
503
499
497
502
504
502
500
504
502
500
498
503
503
499
499
502
501
499
501
505
502
494
495
496
494
492
499
499
496
493
496
496
493
494
498
497
493
494
498
497
495
499
501
498
494
498
499
495
493
498
500
499
498
500
499
495
495
500
499
495
497
501
499
495
498
502
503
499
504
507
508
504
508
507
502
499
503
502
499
499
503
501
498
501
503
500
495
499
503
504
508
534
568
595
605
569
481
425
415
424
430
438
457
480
493
498
506
513
515
516
523
525
524
523
530
533
530
527
532
534
531
532
536
535
531
534
540
540
537
542
546
547
545
550
552
550
549
556
554
549
546
549
548
542
535
533
527
520
516
513
507
500
501
501
497
492
495
494
491
490
496
496
492
492
498
498
493
492
494
494
492
497
499
494
490
495
497
495
493
498
497
494
493
497
496
493
497
500
493
485
487
492
491
488
493
495
493
489
493
494
492
490
494
495
493
493
498
496
490
490
493
494
489
492
495
494
492
496
498
497
495
500
501
499
497
501
501
500
503
507
504
500
503
505
501
496
498
500
499
498
500
499
496
495
501
501
498
498
504
506
508
523
554
583
602
597
528
445
413
419
429
437
453
480
496
502
506
515
519
519
521
528
530
528
528
531
530
528
532
534
534
532
537
538
537
538
544
541
537
538
545
545
544
546
553
552
547
548
551
550
547
550
549
540
534
534
528
520
514
514
509
503
501
503
498
492
491
495
493
487
487
490
490
487
491
493
491
490
496
500
498
494
497
496
493
494
498
498
497
498
501
500
497
500
504
500
494
497
499
496
493
496
496
495
494
499
498
496
498
501
497
495
495
497
495
492
497
499
496
493
497
498
496
498
501
497
494
496
503
501
494
495
500
500
497
502
504
501
496
499
503
507
505
505
503
503
504
509
510
507
504
506
503
498
502
506
505
498
500
502
502
499
503
504
501
500
504
506
511
536
578
604
607
559
472
422
415
430
443
454
472
494
509
511
509
516
521
521
521
527
529
531
534
535
529
527
534
541
541
533
537
540
540
540
550
552
548
543
547
550
551
555
561
558
551
551
555
556
550
550
552
546
535
534
536
534
522
517
512
509
504
505
501
500
501
502
496
489
492
496
495
493
498
500
498
494
499
502
501
503
508
504
500
500
502
499
496
497
502
503
501
503
503
501
500
505
504
499
493
497
497
495
492
497
500
501
498
497
492
488
494
502
499
495
497
498
496
496
500
497
492
490
497
499
495
491
495
498
496
499
503
501
497
499
499
499
496
498
501
501
500
504
504
502
500
508
511
501
491
495
498
496
495
497
497
495
497
501
505
513
527
543
565
595
610
541
443
406
417
428
433
446
470
489
499
505
510
513
515
518
520
519
519
528
529
526
524
528
531
530
529
535
534
531
532
538
538
537
545
548
545
541
552
556
551
545
548
545
541
543
551
548
540
531
527
524
521
521
521
513
503
502
505
505
501
501
497
493
490
495
496
496
492
493
495
494
494
498
499
499
503
501
494
491
500
505
502
494
496
500
501
498
501
501
499
496
498
496
493
495
499
497
492
494
497
497
494
499
505
505
498
498
495
490
489
495
497
495
496
499
498
499
502
505
500
496
500
505
509
504
501
500
495
494
502
503
501
500
500
494
492
496
501
502
503
502
501
501
503
526
554
576
590
578
509
441
421
430
435
440
455
481
495
497
498
505
514
516
519
520
521
520
525
528
531
532
536
535
529
526
536
538
536
537
539
538
537
543
547
546
542
547
553
554
548
551
555
552
546
548
547
543
537
535
529
522
523
528
519
504
501
503
502
497
499
500
500
496
499
499
495
494
501
501
498
497
503
503
504
505
502
497
497
503
506
507
501
504
504
504
502
504
500
497
497
501
501
497
498
503
503
499
498
500
502
499
501
498
497
499
502
500
497
499
504
503
499
501
512
508
498
499
503
504
504
508
510
506
499
503
504
500
497
505
511
507
499
500
500
499
502
505
503
499
507
524
542
565
595
599
540
456
426
427
435
444
461
480
493
502
512
515
514
521
528
525
520
523
526
525
523
530
534
532
532
542
542
537
536
542
542
539
543
547
545
544
548
554
555
550
554
556
553
550
554
553
547
540
541
537
529
524
525
518
511
510
513
505
495
495
499
498
495
497
498
495
493
499
497
495
496
502
499
498
502
508
503
496
498
506
506
500
500
502
503
501
503
501
498
496
501
501
499
500
503
497
493
497
501
500
494
495
499
498
495
498
501
501
498
500
500
498
496
502
501
496
494
499
499
497
502
507
504
501
506
512
510
504
506
506
502
498
502
503
500
498
503
501
498
498
500
500
496
497
500
498
496
505
518
538
568
599
611
557
465
421
417
426
439
461
481
493
503
510
512
511
517
522
522
521
528
534
531
526
529
528
526
526
531
532
532
534
542
543
538
537
542
544
542
546
550
548
545
550
552
550
545
549
550
543
533
534
532
525
521
521
514
505
506
511
507
501
501
497
493
491
495
495
493
491
492
492
492
494
502
502
493
491
496
498
494
496
500
500
496
498
500
500
498
500
503
503
498
500
497
490
489
497
496
492
495
501
504
497
494
492
494
493
497
498
495
490
494
497
497
498
500
499
494
492
497
498
495
497
498
495
494
499
502
501
499
506
506
501
501
512
510
502
499
505
504
502
504
505
501
495
497
502
501
495
497
498
496
495
504
507
506
520
555
585
604
588
511
436
414
420
435
449
467
489
502
505
503
513
519
518
516
525
530
527
528
533
533
530
530
535
536
533
535
538
538
537
545
547
545
544
549
550
548
546
552
553
550
549
552
550
548
549
547
538
531
530
528
523
515
515
515
510
502
502
497
488
488
498
501
498
497
499
499
494
493
496
496
495
499
499
497
496
503
503
499
500
505
506
503
502
505
504
501
500
502
500
498
502
503
499
495
500
501
497
496
502
502
498
497
502
501
497
497
500
498
495
496
500
497
494
500
503
500
498
502
503
502
501
504
503
498
498
504
500
496
499
504
506
509
513
511
502
500
509
510
504
497
503
505
502
499
501
499
497
497
505
506
501
500
500
497
494
499
508
526
555
584
595
559
474
429
427
432
435
448
463
478
493
504
508
510
517
519
516
515
522
524
521
524
529
528
528
527
533
533
528
526
532
536
536
539
539
536
531
536
541
543
541
544
545
543
541
544
543
537
533
536
534
526
520
520
518
509
506
506
503
498
497
495
493
489
494
492
489
491
497
495
494
496
501
500
497
496
496
492
490
496
500
498
494
498
498
498
497
500
502
500
498
502
500
493
492
497
496
491
494
499
497
490
493
498
497
495
502
501
493
488
494
493
490
494
500
498
496
500
504
501
498
503
507
501
495
501
507
503
499
502
501
497
496
502
502
497
500
505
502
503
500
499
495
495
501
509
521
544
576
598
588
517
446
430
438
436
439
448
465
487
503
507
508
510
515
517
518
523
529
530
526
529
528
529
527
533
537
534
531
537
538
539
543
547
544
542
549
552
550
547
552
553
550
550
558
556
548
543
545
541
534
532
530
523
514
513
513
507
499
500
504
503
498
500
499
500
499
503
502
501
497
499
502
497
501
511
512
506
505
507
505
501
505
506
504
502
503
496
499
506
511
508
503
501
506
505
503
506
506
503
500
501
502
500
498
506
509
510
505
505
501
497
499
503
501
500
500
506
504
502
509
510
508
508
513
512
509
504
507
506
501
496
503
505
500
497
503
504
499
500
502
501
502
510
514
524
548
578
598
580
507
442
420
424
432
450
470
486
497
508
513
514
518
522
519
515
521
527
527
524
528
529
529
529
535
536
537
539
545
540
533
534
540
542
542
547
550
550
548
554
556
554
553
558
562
553
542
541
538
532
526
522
518
510
505
513
517
510
504
495
489
486
492
494
491
489
496
496
495
494
498
498
497
500
504
500
497
500
502
499
494
498
502
501
497
501
503
503
501
502
502
501
500
501
498
494
496
500
499
497
500
501
497
494
500
503
499
496
501
501
497
496
501
498
497
502
505
501
498
503
510
508
502
504
505
502
498
501
504
504
498
497
495
493
494
500
502
500
498
499
498
504
523
549
573
588
579
512
436
406
417
433
447
464
490
502
505
507
518
519
517
521
527
527
524
525
526
525
525
531
533
533
531
537
538
536
538
550
552
546
541
544
545
543
548
553
554
550
551
552
549
544
548
548
542
536
537
528
518
516
518
510
501
501
504
500
495
498
499
497
492
497
500
497
494
496
497
499
499
500
495
492
493
499
499
496
498
501
499
496
499
501
499
495
498
502
503
501
503
498
491
490
495
495
492
493
497
496
494
497
499
497
494
497
499
497
495
500
500
499
501
507
505
499
498
503
503
503
507
510
507
502
503
503
502
499
502
502
499
496
500
502
499
498
503
503
502
501
503
507
521
551
579
597
573
502
446
430
429
442
455
470
486
502
507
508
510
517
520
521
524
525
522
521
525
529
527
523
526
529
529
529
533
533
533
532
536
539
540
544
546
546
544
543
543
542
540
542
543
540
536
538
537
532
529
531
525
517
513
516
514
506
502
502
501
498
500
502
501
497
500
500
499
497
502
502
501
501
505
504
501
501
504
503
500
501
504
502
500
503
504
502
498
502
502
500
497
500
499
497
495
499
498
496
498
501
499
495
500
502
498
494
496
498
497
495
500
501
500
501
504
504
503
501
502
498
495
497
500
500
496
499
500
499
497
501
502
501
502
516
538
563
584
592
554
482
446
444
446
446
453
468
483
493
504
510
512
512
518
520
520
521
527
527
525
526
530
529
527
529
532
532
530
533
537
536
534
539
541
540
539
545
545
543
542
546
545
540
538
539
535
530
530
529
524
517
516
514
508
501
502
501
498
494
496
496
494
494
496
495
493
495
499
498
495
497
499
498
495
499
500
499
496
500
500
498
496
500
499
496
497
501
500
496
496
499
498
495
497
500
498
495
499
500
497
495
499
498
496
496
501
500
499
500
504
503
500
502
507
507
504
506
506
502
498
501
502
499
497
501
500
498
497
502
501
498
499
504
509
522
548
576
589
575
522
463
440
439
449
454
460
472
492
500
502
506
513
515
514
518
522
522
520
524
527
526
524
528
529
528
526
531
532
531
532
537
538
537
539
543
543
541
544
547
545
542
545
546
543
538
540
536
530
523
522
518
512
508
508
504
498
497
499
497
494
496
497
496
494
498
499
497
495
499
500
499
498
502
501
498
499
503
502
499
501
503
501
497
500
501
498
495
499
500
498
497
501
499
496
495
499
499
496
497
501
499
496
498
500
498
496
500
501
501
501
505
505
503
502
507
507
504
504
507
505
501
501
503
500
497
499
501
499
496
500
500
498
496
500
501
502
510
534
563
582
593
561
487
436
431
443
453
465
485
499
505
506
512
515
515
515
520
521
520
521
525
524
522
525
528
528
526
530
533
533
532
537
539
538
537
543
544
543
543
548
548
547
547
548
546
542
543
542
538
532
531
527
521
514
514
510
504
499
500
498
493
492
496
495
491
492
495
494
491
494
496
495
494
498
498
497
495
500
500
497
497
501
500
497
497
500
499
496
497
499
498
495
497
498
496
493
497
497
495
493
498
498
495
494
498
497
495
498
502
502
500
502
503
502
501
505
506
503
499
502
501
497
494
497
496
494
494
497
497
494
496
498
496
493
497
503
516
539
572
593
587
528
459
430
430
441
458
476
488
497
505
506
507
513
517
518
516
521
523
522
520
526
527
525
525
530
530
529
529
534
534
532
534
540
540
539
543
546
546
544
548
549
546
544
546
544
540
536
537
533
526
522
521
515
507
506
505
501
496
497
497
494
492
496
496
494
492
496
497
494
493
497
496
494
496
499
498
495
498
499
497
495
499
500
498
495
498
498
496
494
497
497
494
494
497
496
492
493
496
494
492
495
497
495
492
495
497
496
494
500
502
500
499
503
503
501
502
505
504
499
500
501
498
494
497
497
495
492
497
498
496
495
499
499
496
495
500
506
523
555
584
598
567
495
442
430
435
449
465
482
493
503
506
507
508
515
516
515
517
522
522
521
524
527
526
524
528
531
529
528
533
534
533
532
538
540
538
540
545
545
543
544
547
546
542
543
542
538
533
534
532
528
522
521
518
511
505
507
504
499
497
499
498
494
495
497
495
493
496
499
498
496
500
502
499
497
502
502
499
499
503
502
498
500
503
502
500
501
503
501
497
500
502
500
497
501
502
500
497
500
498
495
496
500
499
496
497
500
500
496
498
499
498
495
499
502
501
499
503
503
501
502
507
507
503
501
504
502
497
499
501
500
497
500
501
499
496
501
502
499
498
503
507
520
546
576
594
578
511
450
433
434
446
459
475
489
503
508
510
511
518
520
519
518
524
524
522
523
527
526
524
526
530
530
528
532
535
533
531
536
539
538
537
543
543
541
541
546
545
541
540
542
539
533
534
534
529
523
522
520
515
510
510
508
503
500
504
503
500
499
503
501
498
500
503
502
499
502
504
503
501
505
505
502
500
505
505
502
500
504
504
501
502
504
502
498
500
502
500
497
501
503
501
498
502
501
499
497
502
501
499
499
503
504
502
503
507
506
503
506
509
508
505
509
511
511
508
512
510
507
505
508
507
505
505
508
506
503
505
507
507
505
508
510
510
513
534
560
581
594
579
515
459
446
452
455
458
471
490
503
507
514
520
521
520
525
528
528
527
532
533
532
531
536
536
534
534
539
539
536
538
542
541
539
544
546
545
543
548
550
547
544
547
545
541
539
541
538
532
530
531
527
522
519
518
514
508
509
509
506
503
505
505
503
501
505
504
501
501
505
504
502
503
506
505
502
504
505
504
502
505
506
503
501
505
505
502
501
504
503
500
500
503
501
497
498
500
499
496
499
499
498
496
501
501
500
498
502
502
499
498
502
501
498
499
504
505
502
505
507
506
505
509
509
506
502
505
504
500
498
502
501
498
498
502
501
498
500
504
503
500
503
509
519
542
574
596
593
537
466
436
435
445
461
478
491
500
507
509
509
515
520
520
518
523
526
524
522
526
528
527
526
531
531
528
529
533
534
532
535
539
539
536
539
542
541
539
543
543
539
536
539
538
533
529
531
528
523
520
520
515
507
506
506
503
498
500
499
496
493
496
497
495
493
497
497
495
495
499
499
496
498
501
500
497
499
502
500
497
500
501
499
496
500
500
496
494
497
496
493
494
497
497
493
494
496
495
493
496
498
495
492
497
497
495
493
497
498
496
496
500
499
497
497
499
499
496
497
500
499
498
502
504
503
501
506
508
506
504
507
505
501
501
504
501
497
498
501
500
497
500
502
500
497
500
501
500
504
529
560
583
598
570
493
443
435
444
453
464
484
499
504
504
510
514
515
514
519
521
520
520
525
526
525
526
531
530
527
528
531
531
529
533
536
536
534
538
541
539
537
542
542
539
537
540
538
534
532
534
531
526
525
525
520
514
514
513
509
503
505
504
501
498
502
501
497
497
501
499
497
499
503
501
498
501
504
503
500
503
503
501
499
503
504
500
499
503
503
500
499
502
500
495
496
499
498
494
497
499
498
495
499
499
497
496
500
500
497
496
500
500
497
498
502
500
497
499
501
500
498
501
502
501
499
502
503
501
499
502
502
500
501
506
506
503
504
508
507
505
506
506
503
500
503
504
502
499
502
501
499
498
502
501
499
499
501
500
501
518
549
576
594
586
521
455
435
442
451
460
476
496
504
505
507
515
517
516
518
523
523
521
525
528
528
525
529
530
529
527
532
534
533
532
537
537
535
536
542
541
538
540
543
541
537
538
538
536
532
534
533
529
525
526
523
518
514
515
510
505
502
503
501
497
498
499
497
495
499
500
498
495
500
501
499
498
503
503
500
501
505
503
500
501
504
503
501
503
504
502
499
503
504
501
498
501
501
498
497
501
500
497
497
501
500
497
499
502
499
495
498
500
498
496
501
502
499
498
503
503
501
500
503
503
500
501
505
504
502
505
508
508
506
509
508
505
502
505
504
502
501
505
505
501
501
505
504
501
503
506
506
506
520
542
568
585
594
554
481
444
444
448
452
460
478
494
502
507
514
515
514
519
523
523
521
525
528
526
524
529
531
530
529
534
534
532
533
538
537
535
537
541
541
539
543
545
543
540
543
543
540
537
540
537
532
528
529
525
518
515
516
511
506
505
506
502
499
502
503
501
499
502
502
499
497
502
502
499
499
504
504
501
501
504
502
499
500
501
499
497
500
501
500
497
500
499
496
494
498
498
495
495
498
498
495
496
498
496
494
497
499
498
495
499
500
498
497
501
502
499
499
502
501
499
500
505
504
502
505
506
505
504
508
508
506
502
504
504
501
498
502
502
499
498
502
502
499
501
503
501
498
503
514
533
559
586
598
559
480
441
437
442
449
464
481
493
501
508
510
511
516
520
520
518
522
525
524
523
527
528
526
526
531
532
529
529
534
535
533
535
539
539
537
541
544
543
540
543
543
540
536
539
537
531
527
528
524
518
514
514
509
502
500
499
496
492
493
493
491
487
491
491
489
488
492
492
490
490
494
494
491
492
496
494
489
490
492
491
488
491
491
489
487
491
490
487
485
489
489
485
484
487
486
482
484
487
485
482
484
486
485
482
487
486
484
482
485
485
482
482
486
484
481
481
484
483
480
483
485
483
481
485
487
484
482
488
490
487
484
487
485
481
479
481
481
478
478
480
478
475
477
480
478
474
477
479
485
503
538
563
574
537
460
410
401
410
424
439
456
472
480
483
484
490
494
495
495
499
500
499
498
503
503
502
501
506
505
504
505
509
509
507
511
514
514
513
518
519
518
516
520
520
517
515
518
516
510
508
509
505
499
497
495
491
485
484
482
479
474
475
475
473
470
475
476
474
473
477
476
475
476
480
480
477
479
481
480
478
482
483
482
480
483
483
482
481
484
483
481
481
485
484
482
483
484
483
480
483
485
484
482
485
486
484
482
486
486
484
484
489
489
487
487
490
490
488
490
492
490
487
491
493
493
493
497
498
495
495
501
501
498
496
498
496
493
492
495
493
490
492
495
494
492
496
497
495
494
498
502
513
537
571
592
587
527
455
428
429
441
455
472
487
500
506
508
509
515
518
519
519
525
526
524
525
530
530
529
531
534
534
532
535
538
539
538
542
544
544
544
549
551
550
548
552
552
549
549
551
549
544
541
541
537
531
530
527
521
515
515
512
507
503
505
503
501
500
503
503
501
501
505
504
500
502
506
506
503
505
507
506
504
507
507
506
504
508
507
505
504
508
507
504
505
508
506
503
504
505
504
501
504
504
503
501
505
505
502
501
505
505
502
501
505
504
501
503
505
504
501
504
507
506
504
508
510
510
508
512
511
510
512
516
514
509
507
510
508
505
506
508
507
504
506
508
507
505
508
508
507
505
510
518
538
568
595
603
559
479
440
435
442
454
471
488
500
510
515
516
518
524
526
526
527
532
532
530
531
535
534
533
535
538
537
535
539
541
541
540
545
546
545
544
549
550
549
549
553
552
549
549
550
547
542
541
540
535
529
528
524
518
512
512
509
504
501
503
502
499
499
503
502
499
501
504
503
500
503
505
504
502
505
506
504
502
506
506
504
503
506
505
502
502
505
503
500
501
503
502
499
502
503
501
499
502
502
500
499
503
503
501
501
505
503
501
501
503
502
500
502
504
503
501
505
505
504
503
507
509
508
506
508
505
501
501
503
502
499
500
502
501
499
502
503
501
500
503
504
504
508
529
556
579
594
577
503
442
431
439
444
450
468
488
499
503
510
514
516
516
522
523
522
522
527
528
526
527
531
532
529
532
535
535
533
537
540
540
538
543
545
544
544
548
548
546
544
547
545
541
539
540
537
531
529
527
521
513
512
510
506
501
501
500
497
494
497
497
494
494
498
498
496
497
500
500
497
500
501
500
498
501
502
501
498
502
502
499
498
501
500
497
496
499
497
494
495
497
496
492
494
496
495
493
496
496
494
492
497
497
495
494
497
497
494
494
497
496
493
496
498
496
493
496
498
496
495
499
499
498
499
502
502
501
502
505
502
498
499
501
499
496
498
499
498
495
499
499
498
495
498
498
496
497
505
521
546
575
597
583
512
444
428
433
442
458
477
492
499
506
509
510
512
518
520
519
520
524
525
523
525
529
528
526
529
532
531
529
534
535
534
533
538
539
538
539
544
544
542
542
545
544
540
540
540
537
531
531
529
523
517
516
513
507
502
503
500
496
494
495
494
491
491
493
492
490
492
495
494
493
497
498
496
494
498
498
496
495
498
498
495
494
497
496
494
494
495
494
491
494
495
492
490
493
494
492
490
494
494
492
491
494
494
492
492
495
494
491
493
495
494
492
495
496
494
492
495
495
494
493
497
498
497
496
501
502
500
501
505
502
500
505
508
506
502
504
504
502
499
502
501
499
498
501
499
497
497
500
499
496
498
501
504
515
544
574
594
585
523
451
427
431
446
458
475
491
504
507
508
512
518
520
519
522
525
525
523
528
530
529
528
533
534
533
531
535
535
534
536
541
541
540
542
545
546
545
548
549
547
544
545
545
541
537
539
536
529
525
525
520
514
511
511
507
501
501
502
500
497
499
499
497
495
499
499
498
497
500
500
498
498
502
501
499
500
503
501
498
500
502
500
497
500
500
498
495
499
499
497
496
499
499
496
496
498
497
494
495
498
497
493
497
499
497
495
498
497
495
494
499
498
496
495
499
499
496
497
500
499
496
498
499
498
495
498
500
499
498
502
502
501
502
507
505
501
499
501
500
497
497
499
498
494
496
498
497
494
498
499
497
495
499
506
524
553
582
596
563
484
436
428
434
445
463
481
493
503
508
510
510
517
520
520
519
524
525
524
525
529
529
527
529
533
532
530
534
537
538
536
540
542
541
541
545
546
544
544
547
546
543
541
542
540
536
534
534
529
522
521
518
512
507
508
505
501
497
499
498
495
494
497
497
493
494
498
497
494
497
500
499
497
500
502
500
498
502
502
500
499
502
502
498
498
502
500
497
498
500
500
497
499
500
498
495
498
499
497
495
499
499
497
495
499
499
497
497
501
500
497
499
501
500
498
500
502
501
500
503
503
502
501
504
504
502
502
506
505
504
505
508
507
506
510
512
509
505
507
506
503
500
503
502
500
499
502
502
501
501
504
503
501
503
509
524
548
578
598
584
513
447
430
433
442
457
476
492
501
509
511
513
516
522
523
521
524
527
528
526
530
531
530
529
533
535
534
535
541
541
540
541
544
545
544
547
550
550
548
551
552
550
546
548
548
544
538
539
536
530
525
525
521
515
511
512
509
505
504
506
504
500
502
503
501
499
503
504
502
501
505
504
502
502
506
505
504
505
507
505
503
504
506
504
502
504
504
503
500
503
502
499
499
503
502
500
498
502
502
499
500
503
502
499
501
503
502
499
502
503
501
499
504
504
501
500
504
504
502
503
507
507
504
506
511
511
509
509
508
506
503
505
505
503
500
503
503
501
501
505
505
503
504
507
508
511
529
556
579
591
580
518
457
438
445
449
453
463
484
498
505
509
515
517
517
520
523
523
523
527
529
528
527
531
532
531
530
535
536
535
535
540
540
539
542
546
545
544
546
549
548
545
547
547
544
540
542
540
536
530
530
525
519
515
514
509
503
503
505
502
499
499
500
498
496
499
501
500
499
503
504
501
500
504
504
500
500
504
503
501
503
505
503
500
502
502
500
497
501
501
498
497
500
500
498
497
500
500
498
498
500
500
498
500
501
500
497
499
501
500
498
501
501
500
500
504
504
501
502
507
507
504
504
505
504
500
502
502
500
497
499
501
499
496
499
499
498
498
503
507
516
539
568
585
583
538
472
441
438
447
454
462
476
495
504
506
507
514
516
516
519
523
523
522
524
528
528
526
529
532
531
530
534
535
535
535
539
540
540
540
545
546
546
546
549
548
546
546
548
544
540
540
537
532
525
524
520
513
507
508
505
501
497
499
497
494
494
496
495
492
494
496
495
493
497
498
496
494
498
499
497
496
500
499
498
498
502
501
498
498
501
499
496
497
498
496
493
497
497
495
493
495
495
492
492
495
495
493
494
497
496
494
495
498
496
493
496
498
496
495
499
501
499
498
502
503
502
503
505
503
499
499
501
499
495
497
499
497
495
497
498
495
493
497
498
497
497
504
517
540
569
593
590
531
458
431
433
443
458
478
493
499
507
510
511
513
519
520
519
520
525
525
524
525
529
528
527
530
532
532
531
534
537
537
536
541
542
542
542
548
548
546
546
550
548
545
545
546
542
536
535
532
526
520
518
514
508
503
503
500
496
493
496
495
492
492
495
495
492
493
496
495
493
496
496
494
493
497
497
496
495
499
499
497
496
499
499
496
496
499
497
493
495
496
495
492
495
495
493
492
495
495
493
493
496
495
492
492
496
496
493
493
495
494
492
495
496
494
491
493
494
494
493
498
499
497
496
502
503
500
499
501
498
494
495
496
495
493
496
497
495
492
496
496
495
494
498
498
498
510
539
568
587
588
536
459
428
432
445
454
468
489
499
502
503
510
512
513
514
519
520
519
521
525
526
523
525
528
528
526
529
533
532
532
536
538
537
536
542
543
542
543
547
546
543
543
545
542
539
539
538
533
527
525
522
517
510
509
506
501
497
499
497
493
492
494
494
491
493
497
496
494
497
499
498
496
499
499
498
496
500
501
498
497
501
501
498
498
499
498
495
497
500
498
495
497
498
497
494
497
497
496
494
498
498
495
495
498
497
494
495
498
497
495
497
500
499
496
498
499
497
495
499
500
498
497
501
500
497
498
501
500
498
500
504
504
502
505
506
505
504
509
509
506
503
506
505
501
500
503
503
500
501
504
503
499
501
503
503
500
504
509
523
549
580
601
587
519
457
438
439
448
464
481
494
504
511
513
514
519
523
523
522
526
527
527
526
531
532
531
531
536
536
534
535
538
539
537
540
543
543
541
544
546
546
544
548
548
546
544
546
544
539
535
536
531
525
522
521
516
509
507
506
501
497
499
498
496
494
497
498
496
494
497
497
495
496
500
500
497
498
500
500
497
499
501
499
496
499
500
499
497
499
498
495
494
497
497
494
494
498
496
494
496
498
497
495
497
499
498
496
499
500
499
497
501
501
499
498
502
501
499
500
503
502
499
502
504
502
500
503
505
503
501
504
503
502
501
504
504
502
502
506
506
504
506
508
508
508
512
512
509
505
507
507
505
503
506
505
503
502
505
504
502
504
508
507
504
509
520
538
563
588
599
566
493
451
444
445
450
462
476
491
502
511
513
514
518
523
524
523
527
530
530
528
533
534
533
533
538
539
537
537
541
542
539
540
544
545
544
546
550
549
547
550
551
549
546
548
546
542
538
540
536
530
524
523
519
513
510
510
507
502
503
503
501
498
500
502
500
498
502
502
500
499
502
501
499
500
503
502
499
501
503
502
500
503
504
502
500
504
504
501
499
502
502
500
498
502
501
499
500
502
501
499
500
501
500
497
499
501
500
497
501
501
500
499
503
502
500
500
503
503
500
501
504
503
501
503
505
503
502
506
507
506
504
508
509
507
506
507
506
503
502
504
502
498
500
502
501
499
502
504
502
500
504
505
507
515
541
568
588
593
554
480
443
441
449
456
464
482
499
505
506
512
516
516
516
522
524
523
522
527
527
526
527
532
530
529
531
534
534
533
537
540
540
539
543
545
545
544
549
550
548
547
551
549
544
543
544
539
532
530
527
522
515
513
510
505
501
501
499
496
494
496
495
492
491
494
494
492
493
497
496
494
496
498
497
495
499
500
499
497
501
500
499
499
502
502
499
499
502
501
498
498
499
499
497
499
500
498
495
498
499
497
496
500
500
497
496
499
498
496
496
499
499
496
497
500
498
496
498
499
498
496
500
500
498
497
501
501
498
498
502
501
499
500
503
503
501
504
506
505
504
508
510
508
504
506
504
501
500
502
501
500
499
501
499
497
499
501
501
498
501
502
505
519
553
580
596
580
517
453
433
437
450
460
475
492
502
505
505
510
514
515
514
518
520
520
518
523
524
523
522
527
528
526
527
531
531
529
532
537
537
536
540
542
542
540
544
545
543
540
544
543
539
536
536
533
526
523
521
516
508
506
504
500
495
495
494
491
488
490
491
489
487
491
491
489
489
492
492
490
492
495
494
492
495
497
495
493
496
497
495
493
496
496
494
493
495
494
492
492
496
494
492
493
495
493
490
492
494
492
490
493
493
491
490
493
494
491
491
494
493
491
492
496
495
493
495
497
496
494
497
498
497
494
498
499
497
495
499
499
496
496
500
500
498
500
503
502
502
505
507
504
500
502
503
499
497
500
500
498
497
501
499
496
496
500
500
498
501
509
526
553
583
604
583
509
453
438
440
448
463
480
493
500
507
510
510
515
519
520
519
523
526
525
522
526
528
528
527
532
533
531
531
536
536
536
538
542
543
541
544
548
548
545
547
547
546
543
545
544
540
536
537
533
526
520
520
515
508
506
506
502
497
497
498
496
493
495
496
494
491
495
496
494
492
496
496
494
493
496
495
493
494
498
497
494
497
500
499
496
499
499
496
494
498
498
496
495
498
497
494
495
498
498
495
496
498
496
494
497
498
497
495
499
500
498
497
501
501
499
498
502
501
498
499
503
502
499
502
504
503
500
503
504
503
502
507
508
506
505
510
512
510
510
512
509
505
506
507
505
502
504
506
505
503
505
506
505
504
508
508
509
514
534
560
581
595
577
508
451
442
447
450
455
471
490
502
507
514
517
518
520
526
527
526
527
531
530
529
531
535
535
533
537
540
539
537
542
544
543
543
547
548
548
550
554
554
552
552
555
553
550
549
549
546
540
539
535
529
521
520
516
511
507
509
506
502
500
503
502
500
500
503
502
499
501
503
502
500
503
505
504
501
506
507
505
504
508
507
505
504
508
507
505
506
507
505
503
505
506
504
501
504
505
503
502
505
505
503
502
504
503
500
501
503
502
499
500
502
501
499
503
503
501
498
502
502
499
498
503
503
502
502
506
506
505
507
510
508
504
505
506
503
499
502
502
500
497
501
501
499
498
502
503
501
502
509
522
543
572
594
588
529
465
444
443
447
456
469
485
497
508
511
512
514
521
521
520
522
527
527
525
529
532
531
528
532
534
533
533
537
539
538
537
542
543
542
544
548
548
546
548
550
549
546
547
548
545
540
540
536
529
523
522
517
510
505
505
501
497
497
498
496
492
493
495
494
492
495
497
495
493
497
497
496
495
499
499
497
497
500
499
497
498
500
498
495
497
498
497
496
498
498
496
494
498
498
495
494
497
496
493
493
495
494
491
493
497
496
493
495
497
495
493
495
495
494
493
497
498
496
495
498
497
495
495
498
497
495
497
500
500
499
502
503
503
503
506
506
503
500
503
501
499
498
501
500
496
497
500
499
497
500
501
500
498
502
509
526
554
583
600
574
501
449
435
439
449
466
483
494
503
509
511
511
516
519
518
517
521
523
522
521
525
526
525
526
531
531
530
531
535
535
533
537
540
539
539
543
545
545
544
547
547
545
545
546
544
539
537
537
532
525
521
518
513
506
505
503
499
495
496
495
493
490
493
492
490
490
493
492
490
492
495
495
493
495
497
496
493
496
497
496
493
497
498
496
495
499
498
496
495
498
497
494
495
497
495
493
496
498
496
494
497
497
494
493
497
496
494
493
497
497
495
495
499
498
495
496
499
498
496
499
500
499
496
499
499
497
496
501
501
498
498
503
502
500
501
506
505
502
506
509
508
505
507
506
503
500
503
503
501
499
502
501
499
499
502
501
500
501
504
507
518
548
579
600
593
537
466
439
438
449
460
474
490
503
507
507
511
517
518
517
520
523
523
522
525
526
525
524
528
529
529
528
533
534
533
535
539
539
538
540
544
544
542
545
547
547
545
547
547
544
539
540
537
531
526
525
519
512
508
507
503
497
496
496
494
490
491
492
490
488
492
493
491
489
492
491
490
490
494
493
490
491
494
493
491
494
496
495
493
495
495
494
492
495
495
493
492
496
497
494
493
496
495
493
494
496
495
492
494
495
494
492
495
496
495
493
497
496
494
493
496
496
494
494
496
496
494
496
498
497
495
498
500
499
498
502
503
501
500
504
506
506
505
507
504
500
501
503
502
499
500
502
500
499
503
503
501
500
504
504
504
507
524
547
572
591
592
539
467
441
443
446
450
463
482
497
503
511
514
516
516
522
524
523
524
528
528
527
529
533
533
530
533
536
537
536
538
541
540
539
544
546
546
545
550
550
548
549
552
551
548
547
547
543
538
537
534
528
522
520
517
511
506
506
504
501
498
501
499
496
497
500
498
496
497
500
500
498
502
504
502
499
503
504
502
500
503
503
501
501
504
503
501
502
504
503
500
502
503
501
499
502
503
501
499
502
502
500
498
502
501
498
499
503
502
499
500
503
501
499
501
503
501
499
502
503
501
500
504
505
504
503
508
508
506
506
508
507
503
505
506
503
500
503
504
502
500
504
504
502
501
504
505
505
510
529
555
578
596
584
520
456
442
447
452
457
473
490
501
505
513
515
516
517
522
522
521
522
527
528
526
528
532
532
530
534
536
535
533
538
539
539
539
545
547
545
546
551
551
549
551
553
551
548
549
549
545
540
538
534
527
520
518
513
506
501
502
501
497
495
498
496
493
495
497
497
494
497
498
498
495
499
499
497
495
500
500
497
496
500
500
497
497
501
500
498
499
501
499
496
498
498
495
493
496
497
495
494
498
498
496
496
498
498
496
497
500
499
496
498
499
497
495
499
500
498
495
499
500
498
498
502
501
498
498
501
501
499
502
505
504
501
505
508
506
503
505
505
503
500
503
502
499
498
501
500
497
497
500
499
497
500
501
502
508
532
563
586
598
569
494
443
433
444
453
465
483
498
502
502
507
513
515
514
518
520
519
518
523
524
523
522
527
527
527
528
532
533
531
533
536
537
536
539
543
543
542
546
548
546
545
548
548
544
540
541
537
531
526
524
518
510
507
505
500
494
493
492
489
486
488
488
486
484
487
488
486
485
489
489
487
487
491
490
489
491
493
492
491
494
495
494
491
494
495
492
491
494
494
491
490
493
492
490
490
493
492
489
490
493
492
489
492
493
491
490
494
494
493
492
495
494
492
491
494
494
491
493
496
496
493
495
497
496
494
499
500
499
498
503
504
503
502
505
503
500
500
503
501
498
500
501
499
496
499
500
499
497
501
501
499
499
507
521
546
576
600
593
529
459
439
440
447
460
477
492
499
506
510
512
513
519
520
519
520
525
525
523
524
529
529
527
529
532
532
531
534
537
537
536
541
542
542
542
547
549
549
549
553
552
549
548
550
548
543
541
539
533
526
524
520
515
508
508
506
502
499
502
502
499
498
501
500
497
498
501
500
498
500
502
500
498
502
503
502
500
503
503
502
501
505
504
501
501
503
503
500
502
503
501
499
502
502
501
497
500
500
498
496
500
499
498
498
503
503
501
502
504
503
500
502
505
503
501
503
503
502
501
506
506
504
504
509
509
506
505
506
504
501
501
503
502
499
502
503
502
500
503
504
501
499
503
505
510
526
556
580
591
575
515
457
440
443
450
455
462
481
497
504
507
513
516
517
517
522
523
523
524
528
528
526
528
531
531
529
533
536
536
534
539
541
541
541
546
547
546
545
550
550
549
549
550
548
545
546
545
540
533
530
526
520
513
513
509
504
501
503
501
497
496
499
499
496
497
501
500
497
499
500
499
496
500
500
499
497
501
501
499
498
502
501
498
498
502
501
498
499
501
499
495
498
499
497
495
498
498
496
494
497
498
495
495
499
498
496
498
501
499
497
499
500
498
496
499
501
500
500
504
505
503
502
506
507
505
504
507
504
500
500
502
500
497
499
500
499
497
500
500
499
498
502
502
501
505
524
550
574
593
586
523
455
438
444
451
457
474
492
502
504
510
514
515
516
520
521
520
522
526
526
524
526
530
529
527
530
534
534
533
537
539
539
537
543
544
544
545
550
550
548
549
552
550
546
546
546
542
536
535
531
524
516
514
509
503
499
501
498
494
492
494
492
489
490
492
492
490
492
494
492
490
494
496
495
493
496
497
495
494
497
496
494
494
497
496
494
495
497
495
492
494
495
494
491
494
496
492
490
494
494
492
491
495
494
492
492
495
495
493
494
497
495
492
495
496
494
492
496
497
495
495
498
498
495
494
498
499
497
499
503
502
499
502
504
505
503
505
504
501
498
501
500
498
497
500
498
495
495
498
497
495
497
499
498
498
508
530
559
582
600
569
492
441
436
443
450
463
484
496
499
503
509
512
510
514
516
516
515
519
521
520
519
523
524
523
523
528
529
527
528
533
534
533
535
539
539
538
542
545
545
543
547
548
546
544
546
544
538
533
533
528
521
516
515
510
503
500
499
496
493
494
495
492
489
492
492
491
490
494
494
491
491
496
495
494
495
498
497
495
497
499
497
494
498
499
498
496
499
499
496
494
497
495
493
493
496
495
493
494
497
495
493
495
497
495
493
496
497
495
493
496
496
494
494
498
497
494
495
498
497
494
497
499
498
495
498
499
499
496
500
500
497
496
500
501
500
501
505
505
502
504
508
509
506
508
508
505
501
503
503
501
499
503
503
501
500
504
503
501
501
505
504
503
514
537
564
586
602
572
496
445
440
446
452
461
482
497
504
507
514
516
516
519
524
524
522
526
528
527
525
530
532
531
530
534
534
533
533
538
539
538
540
544
544
544
547
550
549
547
549
551
549
546
548
546
541
537
536
531
524
519
518
513
507
505
506
502
498
500
501
499
496
498
499
497
495
499
500
499
498
502
503
501
501
505
503
500
502
505
504
500
503
504
503
500
504
504
501
499
503
502
500
500
504
503
501
502
505
504
501
503
505
503
501
503
503
501
500
504
505
503
501
505
505
503
503
506
505
503
504
507
506
504
506
508
507
506
509
510
510
509
513
511
507
506
509
508
505
504
507
505
502
504
507
505
502
505
507
505
505
515
532
556
579
597
581
517
459
448
449
451
458
471
485
497
507
512
514
515
520
523
523
522
527
528
527
527
532
532
530
530
535
535
533
536
539
539
538
541
544
544
543
548
550
549
548
552
552
551
549
551
549
543
540
539
533
526
522
520
515
508
507
504
501
497
500
499
497
495
499
499
497
497
501
500
498
500
502
502
499
502
503
502
499
503
503
501
499
503
503
501
500
503
502
499
499
503
502
498
498
501
499
495
498
500
499
495
498
498
496
495
499
499
497
496
500
499
497
497
501
499
496
498
501
499
495
500
502
498
495
499
499
496
494
500
501
499
499
504
503
501
504
508
505
500
502
504
502
499
502
503
501
499
502
501
499
497
501
500
497
499
504
508
523
555
585
600
577
511
451
433
435
449
463
479
492
503
506
506
508
516
517
515
518
523
523
520
523
525
524
522
528
529
528
526
532
534
532
532
539
540
538
539
545
545
543
546
551
549
545
548
549
545
541
542
538
531
524
523
518
510
505
505
500
493
491
493
491
487
489
491
489
486
488
489
487
485
489
490
488
488
492
492
491
492
496
495
492
493
496
495
492
494
495
493
490
493
493
491
488
492
491
489
488
492
491
489
489
492
490
486
488
490
489
487
490
490
489
488
492
493
491
489
494
494
491
491
495
494
490
491
494
493
490
494
497
496
493
496
499
499
497
500
498
496
495
498
497
494
494
497
496
494
496
499
497
494
496
498
498
498
511
537
565
587
595
546
465
427
429
439
448
468
489
498
499
505
510
512
513
518
520
520
519
524
525
523
522
527
527
525
526
531
532
530
532
536
537
535
540
542
543
542
547
549
548
546
550
549
546
544
546
542
536
533
532
526
518
516
514
508
501
501
501
497
493
496
495
492
491
495
494
492
491
495
494
492
492
495
495
493
496
498
497
495
498
498
495
494
498
498
495
493
497
497
494
494
497
495
492
493
495
493
491
494
495
493
490
493
494
493
491
495
495
494
494
498
496
494
495
498
497
494
497
498
497
494
499
500
500
499
504
504
502
502
508
508
505
503
505
503
499
500
502
499
495
498
499
497
495
498
498
496
495
499
500
503
519
552
577
594
578
507
444
425
434
447
461
478
495
503
505
506
513
516
515
516
520
521
519
521
526
525
523
526
529
528
526
530
532
532
530
535
537
537
536
542
543
541
541
545
546
544
545
548
545
541
542
542
537
530
529
525
519
512
511
508
502
497
499
497
493
492
495
494
492
493
496
494
492
495
497
496
493
497
498
496
495
499
499
498
497
501
500
498
498
501
500
497
500
503
501
498
501
502
501
497
500
500
499
498
502
501
498
498
502
501
499
500
503
503
500
502
503
503
501
505
507
506
504
507
508
508
508
511
510
507
506
509
506
503
504
506
505
502
505
506
505
503
507
507
506
506
514
528
551
576
597
588
526
461
444
444
446
453
467
483
496
507
513
515
516
523
525
525
525
530
530
529
530
535
535
534
536
540
539
537
540
542
542
540
545
547
546
546
551
552
550
550
554
553
549
548
549
546
541
539
538
533
526
524
520
515
509
509
507
503
499
502
502
499
497
500
499
497
497
500
499
497
499
501
499
497
502
502
500
498
501
501
499
499
503
501
497
496
499
498
495
496
498
497
495
497
498
496
493
497
498
496
493
496
496
495
494
497
497
494
495
498
497
495
498
501
500
499
502
503
501
500
505
506
504
501
503
501
498
497
500
498
496
496
498
497
495
499
500
498
496
500
502
505
520
552
577
593
576
512
447
428
434
449
461
478
495
505
507
507
513
516
517
516
521
522
521
521
526
526
524
525
529
529
527
529
533
532
530
534
537
538
537
541
543
543
542
546
546
544
543
546
544
539
538
538
535
528
525
524
518
511
509
507
502
496
498
497
494
492
495
494
492
491
495
495
493
495
498
497
495
497
499
498
496
499
500
499
497
500
500
497
496
500
499
496
496
499
498
495
496
499
497
494
497
498
497
495
498
499
497
495
499
499
496
496
500
499
498
499
503
502
500
502
506
506
504
507
507
503
499
501
500
497
494
498
498
496
496
499
498
496
497
499
497
495
500
514
538
565
590
593
536
459
434
435
443
452
473
490
499
503
509
510
510
515
519
519
519
523
525
524
522
526
526
525
525
529
530
528
528
532
533
532
534
538
538
536
539
542
541
539
542
541
539
536
538
535
530
525
525
521
514
509
508
504
497
494
493
490
486
488
488
487
484
487
488
487
485
489
489
487
486
490
489
487
488
491
490
488
490
493
491
488
491
492
491
489
493
492
491
488
492
492
489
488
492
491
489
490
493
491
489
492
493
492
490
493
495
493
492
498
499
497
496
500
500
500
501
505
503
499
499
501
498
494
496
497
496
494
497
497
495
494
498
498
496
496
502
509
527
555
581
590
553
480
440
433
436
446
458
473
487
501
506
508
509
515
517
517
518
523
523
521
523
526
526
524
527
529
530
528
533
533
533
532
537
538
537
538
543
543
541
544
547
546
542
542
542
539
535
536
534
530
524
524
519
513
508
509
506
502
500
502
500
498
499
502
500
498
500
502
501
498
501
503
502
499
503
503
502
502
505
505
502
503
505
504
501
502
504
503
500
502
504
502
500
503
503
501
500
503
502
499
499
503
503
501
502
505
505
502
505
507
506
505
509
511
509
506
508
507
504
502
505
504
501
502
505
503
501
503
505
504
502
505
507
510
521
548
574
590
584
536
470
443
443
450
455
461
478
497
506
508
513
519
520
519
524
526
525
524
528
530
529
530
534
534
533
534
538
538
535
537
541
542
541
546
548
548
546
551
553
551
549
552
550
546
544
545
541
535
531
530
524
517
515
514
510
505
506
506
503
501
504
504
501
500
503
502
500
501
505
503
501
503
505
505
503
505
507
505
503
504
505
505
503
506
506
503
502
505
504
501
501
504
501
499
500
501
500
497
500
502
501
498
501
502
500
498
502
502
500
501
505
505
503
503
506
507
504
507
508
506
502
504
503
501
498
502
502
499
497
501
500
498
498
501
500
498
502
513
532
559
586
600
565
485
442
436
443
452
470
488
499
505
511
513
513
517
521
521
520
524
527
526
523
527
529
530
529
533
534
533
533
538
538
537
538
543
544
542
545
549
549
547
549
550
548
543
544
543
539
534
533
528
522
516
515
511
504
502
502
497
493
493
494
492
490
494
496
494
492
495
496
494
492
496
496
495
495
498
497
495
496
499
498
496
497
497
495
493
497
498
497
495
499
498
495
493
497
497
494
493
496
495
492
492
494
493
490
492
494
492
489
493
494
491
490
493
492
489
489
494
494
491
492
495
494
492
494
496
494
490
493
492
489
485
487
487
485
483
485
485
484
485
488
487
484
485
491
502
526
557
580
578
520
450
423
423
430
445
462
476
484
491
492
492
495
499
500
498
501
504
503
500
504
506
505
503
507
508
506
506
512
513
511
512
517
517
516
518
522
523
521
524
526
524
522
524
524
520
516
517
514
508
503
503
498
491
487
488
484
479
478
479
477
474
476
477
476
474
478
479
479
477
481
480
479
478
482
482
479
479
481
479
477
479
481
481
478
481
481
479
477
481
481
479
477
482
482
480
480
483
482
480
481
484
483
481
483
484
483
481
484
485
484
482
487
488
487
487
490
489
488
489
491
490
488
491
494
492
491
495
496
495
493
498
501
500
499
501
499
496
495
498
497
495
495
498
498
496
499
501
500
498
501
503
503
508
531
559
581
596
574
501
447
438
446
454
463
481
499
507
509
515
520
521
521
526
527
527
527
531
532
531
532
536
537
536
537
541
541
539
543
546
545
544
548
551
551
550
554
555
553
552
555
554
550
548
549
545
540
537
535
530
524
523
520
514
509
510
508
505
502
505
505
502
501
504
504
502
503
506
505
502
504
507
505
504
507
508
506
505
509
509
506
504
508
507
505
505
508
508
505
506
508
506
504
505
506
505
502
504
504
502
501
505
505
502
501
505
505
502
502
506
505
502
503
506
505
503
505
507
507
505
508
509
509
509
513
510
507
505
508
506
502
502
505
504
500
502
503
503
501
504
506
504
503
509
519
538
564
589
596
559
490
454
446
448
454
464
476
490
503
511
513
513
518
521
522
522
527
528
528
528
533
533
531
532
536
536
534
537
540
539
538
542
544
544
543
549
550
548
547
551
551
548
548
549
546
542
540
538
533
527
524
520
515
509
509
507
503
500
502
501
498
497
500
499
497
499
501
500
499
501
503
502
499
502
503
502
500
503
503
501
499
503
504
502
501
504
502
499
500
503
501
497
499
500
499
497
500
501
499
497
501
500
497
496
499
499
497
497
500
499
497
499
501
500
498
500
501
501
499
502
502
500
498
502
502
500
501
506
506
504
504
508
510
508
509
508
505
502
505
505
503
501
505
505
502
501
505
505
502
502
505
505
505
514
536
565
587
602
571
495
446
441
450
458
471
493
505
508
510
516
518
518
521
525
526
524
526
529
529
526
531
532
532
531
535
536
536
535
539
539
538
540
545
545
544
546
549
549
546
548
550
547
544
545
544
539
534
534
529
523
518
517
512
505
503
503
501
497
496
497
496
493
496
497
496
494
497
497
496
495
499
499
498
498
501
500
497
498
501
500
497
499
501
500
498
501
502
500
498
501
500
498
496
499
498
496
496
500
499
496
497
499
499
496
498
500
500
497
500
500
498
497
500
499
496
497
501
499
497
498
501
501
499
500
502
500
498
500
502
500
499
502
504
503
503
507
507
506
507
510
509
504
504
506
504
500
501
502
501
499
502
502
500
498
501
501
499
499
504
512
530
562
590
603
566
493
448
439
443
455
471
487
498
506
509
510
510
515
516
515
516
520
521
520
521
525
524
523
526
528
527
526
531
533
532
531
536
539
539
540
545
546
544
544
548
547
544
545
545
543
538
538
536
530
524
522
518
513
508
509
506
501
498
500
498
496
496
498
497
495
496
497
496
494
497
498
497
495
498
499
498
497
500
499
497
496
500
499
496
498
500
499
496
498
498
495
492
496
496
495
493
497
496
494
493
496
495
494
495
498
496
493
495
497
495
492
496
496
496
494
497
497
496
495
499
498
496
496
499
498
496
497
500
499
497
497
498
497
496
500
502
501
500
505
506
503
503
508
509
507
506
508
506
502
503
505
503
500
502
502
501
499
503
504
503
502
505
505
507
521
552
576
591
579
517
454
435
440
450
458
471
491
502
506
508
515
518
518
519
523
524
524
525
529
528
525
528
532
530
528
532
534
534
533
537
539
538
537
542
543
542
542
546
547
544
544
547
544
540
540
540
536
530
529
525
519
513
513
509
504
501
503
502
499
498
500
499
497
498
500
499
497
500
502
501
498
501
502
501
499
503
504
503
503
506
503
499
500
503
501
498
500
501
500
498
501
501
500
498
502
501
497
493
497
498
496
496
498
498
495
498
502
501
498
499
501
500
497
500
501
500
498
501
500
498
498
502
501
499
500
504
503
502
503
506
506
504
506
507
504
501
505
505
502
499
502
502
501
501
505
504
503
504
506
505
502
509
527
551
575
597
588
523
460
448
451
456
462
480
495
502
507
512
513
513
517
521
522
519
522
523
522
521
526
528
527
527
533
534
531
529
533
533
532
534
540
540
540
544
548
547
544
547
547
544
541
545
543
539
535
536
530
522
517
516
511
503
501
501
497
492
493
493
492
489
493
495
495
493
496
496
494
494
498
498
496
496
499
500
498
500
500
499
496
500
501
499
496
500
499
496
493
497
498
495
495
497
496
494
497
501
499
495
496
499
497
494
497
498
497
496
499
498
495
493
497
497
496
496
499
497
495
498
502
502
500
503
505
505
504
508
508
506
502
503
503
501
500
502
501
498
498
502
501
498
500
504
502
500
507
518
539
569
602
608
551
470
443
446
454
462
479
494
501
508
514
516
516
521
525
526
525
530
531
528
528
534
536
534
533
538
540
541
549
562
566
569
580
589
592
598
612
625
630
631
638
640
638
636
638
636
632
632
637
634
626
621
619
612
603
600
598
593
587
587
584
580
575
576
574
569
567
572
570
566
564
566
563
559
559
559
558
556
558
556
551
547
549
546
543
542
543
540
537
534
538
536
532
531
533
530
525
526
528
525
521
522
522
522
516
519
520
516
515
517
515
510
510
514
511
507
508
511
509
505
511
510
507
505
507
504
499
495
501
499
495
492
493
492
492
495
497
494
490
493
502
513
529
558
579
573
517
454
431
434
440
448
453
461
474
486
489
488
493
500
502
501
503
506
506
503
505
505
504
504
509
511
509
507
512
511
509
511
517
519
517
520
522
521
519
526
528
525
520
523
523
521
521
528
531
528
524
525
525
523
525
531
534
536
543
547
548
546
548
548
550
549
551
548
544
541
546
544
540
540
544
542
538
538
541
539
536
539
540
538
535
535
531
524
521
526
526
523
522
524
522
518
521
524
523
518
521
523
518
514
517
518
517
517
520
518
520
520
520
516
511
511
515
512
507
508
511
508
503
507
511
509
504
506
508
506
505
510
511
517
531
556
574
572
535
486
462
460
466
473
474
475
490
502
505
502
506
507
506
505
510
510
507
507
513
512
509
512
517
516
510
513
516
515
514
519
521
520
520
527
529
528
527
533
533
530
530
535
538
534
528
526
522
515
514
512
507
502
503
500
495
491
495
494
491
491
496
493
489
490
493
493
490
493
496
493
491
495
496
495
492
496
497
495
495
502
503
497
494
497
496
493
494
499
496
491
495
498
495
492
498
499
496
492
497
498
495
495
504
505
495
493
499
499
495
497
501
501
499
504
505
501
497
501
501
498
495
498
496
494
495
501
503
498
498
501
501
501
508
523
541
561
584
584
540
485
469
471
473
477
489
503
508
511
516
516
514
518
524
523
521
525
528
527
525
534
536
531
526
531
533
531
531
536
537
534
537
541
541
539
544
548
548
546
550
550
547
542
548
551
545
538
536
530
524
520
521
516
510
510
513
510
502
502
505
506
501
503
503
500
498
504
505
502
503
508
505
500
502
508
508
504
507
510
511
507
508
507
503
501
506
506
503
501
505
503
501
501
507
507
505
507
509
505
500
504
507
506
503
508
511
510
507
513
514
512
512
517
517
513
514
517
515
508
507
510
508
505
509
509
507
507
511
509
507
507
512
513
515
530
559
581
590
564
507
469
462
466
470
478
488
502
508
507
506
512
514
514
515
521
521
518
520
524
523
519
522
524
524
521
525
528
524
521
526
529
529
527
534
537
536
536
539
537
534
536
539
537
533
534
534
528
522
522
515
506
499
499
496
491
489
491
489
482
480
485
484
481
482
485
483
481
485
488
485
482
486
487
486
484
489
489
486
486
492
492
487
485
488
487
483
485
488
486
482
486
488
485
483
486
488
486
484
489
488
487
486
489
489
485
485
488
488
485
488
492
491
489
492
493
492
491
497
498
495
490
492
490
486
485
488
488
485
487
488
485
481
486
489
486
482
485
490
499
519
552
577
577
522
452
420
418
425
435
443
455
471
481
484
484
491
495
494
494
500
501
499
498
503
504
503
504
509
509
507
510
515
516
514
519
522
522
520
524
527
528
528
534
534
532
532
536
533
529
528
529
524
516
514
513
508
500
499
498
495
491
494
493
489
486
491
491
489
489
493
492
490
491
495
495
493
497
500
499
496
500
501
499
497
501
501
498
497
502
501
498
498
500
499
497
499
501
500
497
499
501
499
496
501
502
499
497
502
501
498
497
502
502
500
502
506
505
504
507
508
505
501
504
505
502
499
504
504
501
500
505
504
501
502
506
505
502
507
521
540
563
588
594
551
486
462
460
460
462
472
483
494
503
512
514
514
517
522
522
520
524
527
526
523
526
528
527
526
531
531
529
528
534
534
531
532
538
538
537
540
544
543
540
544
547
545
541
545
545
541
537
537
532
524
517
517
512
505
503
504
499
495
495
496
494
491
495
497
495
491
495
495
493
492
496
495
492
492
495
494
490
491
494
492
489
492
494
492
488
491
492
489
487
491
490
487
486
489
488
485
485
488
487
485
486
489
488
485
488
489
489
487
492
493
489
489
496
496
492
490
493
491
487
488
491
489
486
488
490
489
487
490
491
490
489
499
511
531
555
578
577
528
467
445
443
446
453
464
475
484
495
501
501
501
507
510
509
508
515
516
515
516
521
520
517
519
524
522
520
523
526
525
522
526
529
527
525
530
531
530
528
532
532
529
528
528
525
519
516
513
506
498
496
493
487
480
480
478
473
470
473
472
467
464
468
467
464
464
467
466
463
466
470
469
467
471
472
471
470
473
474
473
472
476
475
473
473
477
476
473
474
477
476
473
475
478
477
475
479
481
479
477
481
481
479
479
484
485
484
485
490
489
487
490
494
493
490
492
494
491
486
489
490
488
485
489
490
487
487
491
490
489
491
500
511
532
559
580
574
523
468
446
444
447
456
467
477
486
496
498
498
501
507
508
507
508
512
513
512
516
520
520
518
522
524
524
522
527
528
527
527
532
534
533
534
539
540
537
540
544
542
538
540
541
538
532
533
530
522
516
515
511
504
500
501
498
493
492
495
493
489
491
493
490
487
491
492
491
489
494
495
492
491
495
495
493
494
497
496
493
494
497
495
492
494
495
493
490
493
494
491
490
496
496
493
492
497
498
495
495
498
497
494
496
500
499
497
501
502
500
498
502
503
501
498
501
500
495
492
495
493
491
491
495
495
491
493
496
494
490
495
500
511
533
566
591
591
545
486
459
453
456
465
474
483
495
502
503
503
508
512
512
510
516
519
517
516
522
522
520
520
525
525
523
525
529
529
527
531
535
534
532
536
540
540
539
544
545
542
540
543
541
537
535
536
530
523
519
518
512
504
504
503
499
494
497
496
493
491
495
495
493
491
495
495
493
494
499
498
495
497
500
499
496
500
502
501
499
502
502
499
497
501
501
498
497
501
500
496
498
501
499
496
498
501
499
496
500
501
499
498
503
504
502
500
505
505
503
503
506
504
499
501
504
501
498
501
502
501
498
503
504
501
499
503
502
499
501
518
541
569
595
606
562
492
464
463
466
469
484
498
505
505
512
514
513
513
520
520
518
519
523
523
520
523
527
526
524
528
530
530
528
532
533
533
533
538
539
537
536
542
543
540
540
543
541
538
539
540
536
530
531
529
523
515
516
513
506
500
502
499
494
491
494
492
488
488
491
488
484
486
489
487
483
487
488
485
482
487
487
486
484
488
488
485
485
488
486
483
484
487
486
482
484
487
486
483
486
487
485
484
489
489
487
486
492
493
490
492
496
495
492
495
499
498
495
498
498
496
493
497
496
493
491
495
495
492
492
496
496
494
495
498
497
497
512
541
570
593
598
549
483
456
458
463
466
477
494
500
499
501
506
507
505
509
512
511
508
513
515
514
512
517
519
516
515
520
521
519
519
524
524
522
524
527
527
524
527
529
528
524
527
527
523
519
520
517
511
506
507
502
495
491
491
487
481
480
482
480
476
479
480
478
476
480
482
479
478
483
484
481
481
486
486
484
484
488
487
484
488
491
489
486
489
490
489
485
489
490
488
486
491
491
489
488
492
491
489
491
494
493
491
494
497
495
493
497
499
498
496
501
502
499
498
504
505
503
503
505
503
499
500
503
502
499
502
502
500
497
501
502
500
498
503
502
501
512
540
570
594
603
565
498
466
465
470
474
481
497
506
507
507
514
517
516
516
522
522
520
520
525
525
522
525
528
528
526
530
532
531
529
535
536
535
534
540
540
538
538
543
543
540
540
544
542
537
538
538
534
529
530
527
522
516
517
514
510
506
509
508
504
502
507
506
501
502
506
505
502
505
507
506
503
507
506
502
497
499
496
491
488
491
489
483
481
484
483
479
480
482
481
477
481
482
481
478
483
484
481
479
484
485
483
483
487
485
482
483
488
488
486
490
493
492
489
494
498
496
493
496
495
493
492
496
495
492
492
496
495
492
494
498
498
494
497
499
499
505
530
558
580
589
561
497
462
457
462
465
468
481
496
501
501
505
509
510
509
515
518
517
516
521
523
522
521
526
526
524
525
529
529
526
528
533
534
532
536
539
538
535
539
541
539
536
539
538
535
532
535
532
527
524
525
520
514
513
513
508
502
504
504
502
499
502
503
501
498
502
501
499
498
502
502
499
499
503
502
498
500
501
499
495
498
500
498
495
500
501
498
497
501
501
498
498
502
501
498
499
502
500
496
500
503
501
498
502
503
501
499
502
503
501
501
504
504
501
503
507
507
505
508
510
510
508
512
514
511
507
510
509
506
504
508
508
504
504
508
507
504
505
509
507
502
505
512
528
553
585
607
591
529
483
469
468
471
481
493
501
508
515
516
515
519
522
522
520
524
527
526
524
529
531
529
527
531
532
529
529
534
534
532
534
538
538
536
539
542
539
535
538
539
536
534
537
536
532
528
531
527
520
517
517
513
507
505
506
502
498
500
502
499
496
500
501
499
497
501
502
500
500
504
503
501
503
506
505
501
504
507
504
501
505
506
503
500
504
504
500
498
502
502
500
499
502
501
498
499
502
501
498
500
502
500
498
501
502
499
497
501
501
498
498
503
503
499
500
503
502
499
502
504
504
502
506
507
505
504
509
510
507
504
507
506
503
501
505
504
500
500
503
501
498
501
503
502
498
501
507
523
548
582
606
591
530
482
467
465
469
481
493
499
505
510
510
508
513
516
515
513
519
521
520
519
524
524
522
522
526
526
524
525
529
529
526
529
532
532
529
533
535
534
533
537
537
533
530
533
531
527
524
526
522
517
516
516
511
505
505
505
502
498
500
500
497
494
497
497
495
495
498
498
495
496
500
500
497
500
502
501
498
500
502
500
497
501
502
499
497
501
501
497
496
501
500
497
497
500
498
495
497
499
497
494
498
499
496
493
498
498
496
495
499
499
497
497
501
500
497
499
501
500
497
500
503
501
498
502
502
500
499
505
505
502
501
505
505
503
503
505
504
502
503
504
503
500
503
503
501
498
501
501
499
498
502
501
502
519
552
581
602
591
534
483
465
468
475
482
492
505
510
508
507
513
515
514
514
519
518
516
517
522
522
520
523
525
524
522
526
528
528
526
530
531
530
529
534
535
533
532
535
534
530
531
533
531
527
527
527
523
518
519
518
514
509
510
507
502
499
501
500
496
495
499
498
495
496
498
498
495
499
501
499
497
500
501
499
496
498
498
496
495
498
497
494
495
498
497
494
495
497
496
493
496
498
495
492
496
496
494
492
496
497
495
494
498
498
495
496
500
498
495
498
500
499
497
500
501
499
497
501
501
500
499
503
502
500
501
506
506
502
504
508
508
505
506
506
504
502
504
504
501
498
502
502
500
499
503
503
501
501
503
502
503
523
552
579
600
589
529
478
462
466
471
476
487
501
505
505
506
511
512
511
514
518
517
516
519
521
521
518
522
524
523
522
526
526
524
524
529
529
527
529
533
532
530
532
534
532
530
532
533
530
526
528
527
523
519
520
517
511
508
509
506
501
500
501
499
495
496
499
497
495
497
498
497
495
499
500
499
497
502
502
499
500
504
503
501
502
505
503
501
502
504
502
500
503
503
501
499
503
502
501
500
503
502
498
499
503
503
499
500
502
501
498
502
503
502
499
503
504
502
500
505
505
502
502
506
506
503
505
508
507
505
508
510
507
503
506
505
502
500
504
504
501
501
505
505
502
503
505
505
501
508
524
546
569
594
594
544
483
467
466
466
469
481
493
501
506
513
515
514
517
521
521
519
522
525
524
523
528
529
528
526
531
532
531
530
535
536
535
536
540
541
539
540
542
540
537
540
541
538
534
535
535
531
528
530
526
520
517
518
514
508
506
507
504
500
501
503
501
497
501
502
500
499
503
504
504
503
507
506
503
503
507
506
503
504
506
504
501
504
505
504
501
504
504
502
500
503
503
500
499
503
502
500
501
504
503
500
501
503
502
499
502
503
501
497
503
504
502
500
504
503
500
499
504
504
501
503
507
507
504
506
508
507
505
508
507
503
501
504
503
500
499
502
502
498
498
502
501
498
499
501
498
496
507
530
558
584
603
574
506
467
463
465
467
476
492
500
501
504
509
509
508
511
514
514
513
517
518
516
515
519
520
519
519
524
525
523
523
527
528
526
528
531
531
529
532
534
533
530
533
532
529
526
529
527
522
518
519
515
509
506
506
502
496
497
498
496
492
495
495
494
491
495
496
494
493
497
497
495
494
497
497
495
496
497
496
494
497
499
498
495
498
499
497
495
499
498
494
493
497
496
493
494
498
497
494
495
498
496
493
497
498
497
495
499
500
497
496
499
499
497
497
501
499
496
498
501
499
497
499
502
501
499
503
505
502
501
505
505
503
499
502
501
498
497
500
498
495
496
499
498
495
497
499
499
496
499
503
514
538
572
600
600
550
491
467
462
466
476
487
495
503
508
508
507
513
515
514
513
518
520
519
518
522
523
520
520
525
525
523
525
529
528
526
529
533
532
531
534
536
534
532
536
537
534
532
535
533
529
527
528
524
518
516
515
509
503
503
502
499
494
497
497
495
492
496
496
493
493
497
496
494
496
499
499
497
498
500
499
497
500
501
499
497
500
500
497
495
499
498
495
494
497
496
493
494
497
495
492
494
496
496
494
497
499
497
495
499
499
496
496
499
499
497
498
502
501
499
501
503
502
499
501
502
501
498
501
502
501
500
505
505
502
501
506
507
504
504
506
504
501
502
504
502
500
503
503
501
499
504
503
501
499
502
501
502
518
549
578
602
595
537
482
463
466
473
478
488
501
506
506
506
513
515
514
515
519
519
517
519
523
523
520
523
526
526
524
528
530
528
527
533
534
533
532
537
537
534
535
540
539
535
535
537
535
531
532
532
528
522
522
519
513
508
508
506
501
498
501
499
495
496
499
498
494
496
498
497
494
498
499
498
495
499
499
498
496
500
500
497
496
500
500
496
498
501
500
496
498
499
497
494
497
497
495
492
497
497
495
494
497
496
494
495
499
497
494
496
498
497
494
497
499
497
494
498
499
497
494
498
498
495
496
499
499
496
497
500
499
497
500
502
501
499
504
505
502
498
501
501
498
496
500
499
496
496
499
498
494
494
496
495
490
492
495
501
519
548
572
580
544
480
445
435
437
445
452
461
472
480
482
482
486
490
490
488
493
495
495
494
499
500
498
497
502
503
502
503
507
508
505
507
511
512
510
514
517
516
515
520
521
520
518
521
520
515
513
514
511
505
503
502
499
493
492
492
490
485
487
487
485
484
488
488
486
485
490
490
488
489
494
494
492
493
496
495
493
496
499
497
494
498
499
498
496
500
500
497
495
499
499
496
496
499
497
495
497
499
498
495
498
500
499
497
500
501
499
498
503
503
500
499
503
502
500
502
506
505
502
505
508
507
505
509
511
510
508
514
515
513
510
513
512
509
508
511
510
506
507
510
510
508
510
512
511
508
511
513
519
535
563
589
603
583
525
480
467
469
476
482
490
503
514
517
517
522
525
525
524
529
531
530
530
534
535
533
534
539
540
537
539
543
543
541
545
548
547
545
550
552
550
550
554
554
551
550
553
551
547
546
547
542
535
533
531
526
519
518
517
513
508
510
509
508
506
509
508
505
505
509
508
506
507
510
509
507
509
511
510
507
511
512
511
508
511
510
508
507
510
510
508
507
510
508
505
506
508
506
502
505
506
504
501
505
507
505
503
507
507
504
504
507
506
503
504
506
505
503
506
508
507
504
506
506
504
502
506
507
505
503
507
506
504
505
510
510
507
508
512
512
509
510
510
507
503
506
505
503
501
505
505
502
502
506
505
503
504
507
504
503
516
543
573
598
609
568
500
469
468
473
476
485
501
508
508
509
515
515
514
516
521
520
517
520
523
521
520
524
526
525
524
528
528
527
527
532
533
532
533
537
538
536
539
541
541
538
540
542
539
535
537
537
532
527
527
523
516
510
510
505
499
498
500
498
493
495
496
494
492
495
496
494
491
494
495
493
492
497
497
494
494
498
498
494
496
499
499
497
499
500
497
495
499
500
497
495
498
499
495
494
498
498
495
495
498
498
496
497
499
499
496
499
500
498
496
499
499
497
496
500
499
496
496
500
500
497
498
502
501
498
500
502
500
497
501
502
500
498
501
502
499
499
504
505
503
503
507
506
504
506
508
505
501
503
505
503
500
503
503
501
499
503
504
