259
296
302
305
296
294
305
308
300
296
306
311
305
299
309
316
310
300
304
305
295
285
293
300
297
285
293
300
298
287
291
300
300
288
291
301
301
293
291
301
303
294
291
299
304
295
288
302
305
297
289
299
304
298
285
290
331
306
262
300
305
302
292
298
307
307
297
300
311
313
302
305
315
317
308
303
306
304
293
289
300
302
295
289
300
303
295
288
296
302
297
288
295
302
297
288
294
301
300
288
293
301
301
291
292
302
302
290
290
302
304
293
289
300
302
293
287
286
325
314
258
303
305
298
291
300
306
302
293
303
310
307
298
306
314
313
304
307
309
301
287
289
299
299
289
289
298
301
289
288
298
300
290
286
297
301
292
287
296
301
294
287
296
302
297
287
295
302
299
288
294
301
299
289
297
303
301
288
291
299
301
284
281
336
303
272
294
301
304
296
291
302
307
300
295
305
311
306
299
310
316
312
299
302
302
295
283
290
298
296
285
288
298
299
288
290
298
299
288
288
298
300
289
286
297
301
292
288
298
302
295
287
296
302
297
289
296
302
297
288
297
305
301
287
293
301
299
288
282
315
328
256
293
303
303
294
294
303
306
296
295
306
311
303
299
310
314
309
301
306
305
295
286
294
300
295
285
293
300
298
286
291
299
298
286
290
299
299
289
289
299
300
290
289
298
300
291
288
298
300
293
288
297
301
297
290
298
302
298
288
296
301
288
306
317
268
302
290
296
305
305
293
296
307
308
298
299
310
313
303
303
314
315
300
290
297
299
291
286
296
301
293
285
295
301
295
284
293
299
296
285
292
299
297
286
291
299
299
288
290
299
300
289
290
300
301
291
288
298
303
296
290
297
300
293
286
296
289
302
320
263
301
299
289
299
305
303
291
299
307
306
296
302
311
313
301
306
314
309
292
289
297
299
288
288
297
299
290
286
296
299
291
285
294
299
294
284
293
298
296
285
292
300
297
286
292
300
298
287
290
300
299
288
292
303
303
289
289
299
302
291
275
308
334
258
289
299
304
297
291
302
306
303
294
303
310
307
297
306
314
314
302
302
303
298
285
288
296
298
286
288
296
298
288
286
296
299
288
285
295
300
290
286
296
300
294
285
295
301
295
287
295
303
301
288
292
300
298
287
291
290
317
311
257
300
302
291
292
303
304
294
295
305
310
300
298
308
313
306
302
309
308
296
284
293
298
294
285
293
300
297
286
292
300
298
285
292
300
299
288
290
300
299
291
293
300
300
289
287
298
300
284
306
318
270
293
289
300
304
299
291
301
308
305
295
304
312
310
301
310
318
312
294
294
301
299
287
290
299
299
287
288
298
300
289
288
297
300
291
287
296
300
292
286
296
301
299
290
297
300
295
287
295
298
292
320
296
282
304
291
295
305
306
295
296
307
309
298
298
309
313
304
302
312
311
296
287
295
299
290
284
294
300
294
284
293
299
294
284
291
298
297
286
291
298
297
285
291
298
299
287
288
301
303
293
291
296
301
290
286
294
294
325
295
278
306
297
291
300
305
301
292
300
307
305
296
303
312
311
301
308
313
306
290
292
298
299
288
289
298
299
288
286
298
300
290
288
297
300
292
285
296
299
294
286
295
300
295
286
294
301
297
288
296
305
301
286
292
299
297
285
276
321
320
258
292
301
302
293
292
301
305
296
293
304
309
303
296
309
315
309
299
304
304
296
285
292
299
297
285
292
300
299
286
292
300
299
287
289
299
298
288
288
298
300
290
288
298
304
295
289
296
302
293
286
295
287
305
319
259
299
297
288
296
303
302
291
299
308
307
295
299
312
312
302
305
312
308
290
288
296
298
288
284
296
298
288
285
295
299
291
285
294
300
294
286
293
300
296
285
296
304
300
286
292
300
300
287
281
312
332
254
286
303
304
294
293
304
308
297
295
306
311
304
298
311
316
311
301
305
303
295
284
293
299
296
284
292
300
296
285
291
299
298
286
289
297
299
287
288
300
304
293
288
298
300
290
288
294
299
323
288
273
306
297
290
300
304
301
292
302
310
306
296
304
313
312
301
307
311
304
288
289
298
299
288
288
299
300
289
287
296
301
291
286
295
300
293
286
299
303
297
286
294
302
296
285
285
318
323
255
292
303
300
289
294
303
304
292
295
305
307
297
298
309
314
304
298
302
301
290
285
296
299
292
284
294
300
293
285
294
300
295
283
291
298
296
285
291
299
299
288
291
298
298
286
288
297
290
303
317
269
303
294
290
302
305
297
292
303
308
302
295
307
312
308
299
309
313
304
289
292
300
297
285
291
299
298
285
290
300
299
287
288
298
299
289
287
299
300
289
288
300
303
292
286
296
300
293
275
315
323
268
288
295
303
299
289
297
304
304
292
299
308
308
296
300
312
314
299
295
300
301
291
287
297
300
290
286
296
299
291
284
293
298
292
284
293
298
293
288
297
301
295
284
291
299
291
278
325
302
280
289
291
300
304
290
289
302
306
296
293
306
307
301
296
309
314
300
288
296
300
293
285
293
299
294
284
292
299
296
284
290
300
298
286
290
298
298
291
293
303
300
286
289
298
300
280
297
326
272
294
291
300
305
299
291
301
308
303
294
304
310
307
297
306
314
310
293
296
302
299
285
290
299
300
288
289
299
300
289
288
298
301
291
287
298
302
293
286
299
306
298
287
296
301
297
286
284
304
337
257
289
304
300
290
296
304
304
293
297
309
310
299
300
312
315
306
304
308
305
291
287
296
300
293
286
296
300
294
285
294
299
294
285
293
299
296
286
293
300
298
285
290
302
304
290
290
299
299
287
287
287
315
315
252
300
304
295
291
301
306
300
293
304
309
304
296
306
313
309
300
307
308
300
286
292
299
298
285
291
299
298
287
289
298
300
288
288
300
300
290
288
299
304
295
286
297
300
293
285
293
296
323
291
269
305
298
288
297
304
302
292
300
308
308
298
303
312
313
303
305
310
306
292
289
298
300
290
287
297
302
294
287
295
300
293
285
296
300
294
286
298
304
296
285
292
299
297
279
290
335
283
274
295
301
303
292
294
305
307
297
296
308
310
303
300
312
316
306
293
299
300
293
286
295
299
294
284
294
300
295
285
292
299
296
285
292
299
297
286
289
300
301
292
291
299
299
288
287
299
294
285
325
290
288
296
289
298
303
298
291
301
306
302
293
304
312
309
299
308
315
309
292
293
299
298
286
291
300
300
288
288
299
300
290
288
299
302
291
288
298
302
293
286
296
303
298
291
299
301
296
286
294
299
283
305
316
269
302
287
293
302
302
291
294
304
306
295
296
307
311
299
299
311
312
298
288
296
299
291
285
296
300
294
284
295
299
295
283
292
299
296
285
292
299
297
284
290
300
302
289
290
297
299
287
287
293
291
321
290
273
304
292
289
301
306
298
292
302
309
303
295
305
313
309
299
307
310
302
288
293
300
299
286
291
301
300
288
290
298
299
289
287
298
300
289
286
298
304
295
286
296
300
291
285
291
298
327
283
273
303
297
288
296
305
302
292
299
308
306
295
302
312
312
302
302
306
303
288
287
298
300
290
286
297
300
292
286
296
302
294
287
296
302
296
287
295
303
301
290
295
302
300
287
292
293
307
325
264
297
305
291
293
303
306
297
296
308
310
301
297
309
315
307
302
310
308
296
285
294
299
294
284
292
300
296
285
291
298
296
284
290
298
297
286
289
298
299
288
288
299
300
291
290
299
300
290
287
297
297
284
323
302
283
298
288
298
304
300
290
299
306
304
294
301
311
309
299
306
315
310
291
291
299
299
288
288
298
300
288
288
297
301
291
286
297
301
292
286
297
302
295
286
296
302
297
287
295
301
299
287
295
304
302
289
291
300
300
288
284
296
342
279
279
303
304
293
291
302
305
296
294
303
309
300
296
308
314
310
300
305
306
297
284
293
299
296
284
292
300
298
287
291
299
301
288
292
301
301
291
290
299
301
290
288
299
302
293
289
298
303
298
291
298
303
296
289
297
298
295
321
297
282
303
290
297
305
305
294
298
307
308
297
301
312
314
302
304
313
312
297
289
298
300
292
286
296
301
293
286
296
300
296
285
294
299
295
285
293
301
298
286
292
299
299
288
290
299
301
292
292
300
300
288
287
297
294
287
322
288
287
296
289
300
305
299
291
301
308
303
295
305
312
310
300
308
315
309
291
293
301
298
286
290
298
300
288
288
297
299
289
287
298
300
289
285
297
301
293
286
297
301
295
286
295
302
296
285
294
302
302
289
294
301
300
287
292
289
305
322
263
298
302
291
292
301
303
294
294
303
307
299
298
308
312
307
303
309
308
296
285
292
298
293
284
292
299
296
287
291
298
297
287
291
298
298
288
289
298
298
289
289
298
301
293
291
300
302
293
290
298
303
298
293
297
302
296
289
296
293
303
323
265
299
303
291
298
306
304
295
299
307
308
299
300
310
312
304
303
312
309
294
288
296
300
291
287
295
298
292
286
294
299
295
288
293
300
296
287
293
299
297
288
292
299
298
288
291
301
302
292
290
299
300
290
289
289
317
314
256
297
302
296
291
300
305
301
295
303
309
305
299
307
314
311
303
304
306
298
287
289
298
297
287
290
299
298
290
289
298
300
290
289
298
301
293
288
296
301
294
289
297
304
300
291
295
300
295
287
293
291
302
318
265
295
302
291
296
304
304
294
297
306
308
298
299
309
312
304
304
311
308
294
287
294
299
291
285
293
299
293
287
294
300
294
286
293
299
296
287
293
301
299
288
291
300
300
290
290
299
303
295
293
299
302
293
290
296
292
319
301
272
306
298
293
300
306
300
294
300
306
304
296
303
313
311
303
309
312
304
289
292
299
298
289
290
300
300
290
288
297
299
291
288
298
299
292
288
295
301
294
288
296
300
296
288
295
301
299
292
297
301
297
288
291
300
288
294
326
270
298
292
293
302
304
295
294
304
307
299
297
308
311
306
300
310
313
301
291
295
299
294
287
294
299
295
287
291
299
296
287
291
299
298
288
291
299
300
289
289
297
299
290
289
302
303
293
288
296
299
293
285
291
329
299
265
300
304
300
293
301
306
303
295
302
311
309
302
305
315
315
304
302
303
300
288
288
298
300
289
287
296
299
291
287
296
299
292
286
294
299
293
286
294
300
296
290
297
303
298
288
294
300
300
282
298
334
278
282
295
301
303
295
296
303
306
298
297
306
310
304
301
311
317
307
296
298
300
294
285
294
299
294
286
292
298
294
284
290
297
296
287
291
298
298
288
290
297
299
290
289
302
304
293
289
297
300
291
286
285
320
313
259
300
303
297
291
299
304
301
293
301
307
306
298
304
313
313
303
302
304
299
287
287
297
298
289
288
297
300
290
287
297
300
292
288
295
299
292
286
294
299
294
287
295
301
296
288
295
304
301
290
292
300
298
289
290
286
323
304
262
304
302
294
293
303
305
297
294
304
309
301
298
308
314
308
302
308
307
296
286
293
299
295
287
292
299
296
286
291
299
297
287
290
297
298
289
289
299
299
290
289
300
301
292
289
298
301
294
292
300
302
294
289
296
301
293
280
325
306
273
292
296
304
301
292
297
305
305
295
299
308
309
301
303
313
314
301
294
299
299
289
287
296
298
290
286
294
298
292
285
294
298
294
286
294
299
297
288
294
300
298
288
292
300
301
292
294
301
301
289
290
300
291
304
315
266
300
294
293
301
305
297
294
303
307
301
296
304
310
309
302
310
313
304
290
293
300
296
288
292
299
298
288
292
300
299
289
291
300
301
290
290
298
300
291
289
299
301
294
290
298
303
295
292
301
305
296
289
297
300
296
278
306
328
269
290
296
304
303
294
298
305
306
297
298
307
309
300
301
313
315
304
296
299
299
290
286
294
298
293
287
295
301
296
288
295
301
296
288
294
301
299
289
292
299
299
288
292
300
301
290
292
300
301
291
290
300
304
299
294
300
302
295
290
298
291
303
320
267
303
298
292
301
306
303
295
301
309
307
299
304
312
312
303
307
313
308
295
292
298
299
289
290
299
301
292
288
297
300
291
288
296
300
293
288
296
300
294
287
295
301
296
288
294
300
297
288
294
300
301
294
295
302
297
288
290
297
296
281
315
311
275
296
291
300
305
297
293
302
306
301
295
304
310
305
300
308
315
307
292
296
300
296
287
292
299
296
287
290
298
297
286
288
296
296
287
288
296
298
289
288
297
300
292
288
297
300
295
291
298
302
294
287
295
300
290
285
327
291
282
293
296
303
302
293
297
305
305
296
300
309
311
303
305
315
315
301
294
300
300
293
288
296
298
292
286
295
299
293
287
294
299
296
287
293
299
296
286
293
300
297
289
292
300
299
289
292
303
302
292
291
299
300
292
287
291
334
296
271
303
304
297
292
302
306
301
294
304
309
306
298
306
314
311
304
305
306
299
287
290
297
297
286
289
299
299
288
289
298
300
289
289
299
300
292
289
297
302
294
289
298
302
296
289
297
303
300
294
299
303
299
288
296
300
288
316
307
275
305
292
296
303
304
295
297
305
308
299
300
310
313
305
304
312
311
298
289
295
298
291
285
292
298
294
285
293
299
295
286
293
298
296
288
293
300
299
289
293
301
300
291
292
304
304
291
290
298
300
291
282
303
333
268
279
299
301
296
291
300
307
301
295
302
309
306
299
307
314
313
301
300
303
299
288
291
299
299
288
290
298
300
289
290
299
302
291
289
297
299
292
288
297
301
298
291
297
300
294
287
295
297
291
317
298
278
301
290
295
303
302
292
298
306
305
298
301
310
311
304
304
313
309
294
288
296
297
290
286
294
299
292
287
295
301
294
287
294
301
297
287
294
299
297
287
294
300
298
289
292
303
303
291
292
300
301
291
290
288
316
315
260
301
303
295
291
301
304
298
294
304
308
303
298
306
313
310
303
307
307
298
286
290
297
294
285
288
296
295
285
288
296
295
287
286
296
297
288
288
296
299
290
287
295
299
294
291
298
300
294
286
293
298
286
286
330
275
290
290
295
304
301
294
298
307
306
297
301
310
311
303
305
315
314
300
292
297
300
291
288
296
300
293
288
297
301
294
290
296
301
295
288
295
301
298
289
295
301
298
289
294
300
303
295
297
301
300
291
291
299
295
287
327
292
285
298
292
301
305
296
294
302
307
301
296
304
310
308
301
310
316
306
293
295
300
296
285
290
298
297
287
290
298
298
288
289
297
298
288
289
297
300
291
289
297
304
296
291
297
301
295
288
297
292
304
322
269
299
300
291
298
303
301
294
299
308
307
298
303
313
313
304
307
312
306
292
289
296
299
290
288
298
300
292
288
297
301
292
287
296
300
295
287
295
300
296
288
295
300
298
288
293
299
298
289
293
302
301
289
290
298
300
290
280
304
335
265
289
302
305
297
294
303
308
302
297
307
311
306
301
310
316
314
304
305
306
299
288
292
301
298
288
292
298
299
288
290
299
301
290
290
299
300
290
288
298
301
293
289
298
301
293
288
295
301
295
288
297
302
299
292
300
305
299
290
294
301
298
275
308
324
268
293
294
303
304
294
296
305
309
299
298
309
314
305
302
313
317
308
296
299
301
294
286
295
300
294
288
294
300
296
286
293
298
296
288
292
299
299
290
292
300
300
291
291
301
300
290
290
299
302
293
289
300
302
294
291
302
304
297
289
297
301
295
286
286
323
313
260
297
302
300
290
297
305
303
295
299
309
309
301
302
312
315
307
305
308
304
292
290
298
301
293
290
299
302
295
289
298
301
294
288
296
302
296
288
296
302
298
287
294
301
299
291
297
301
298
288
293
303
300
282
317
310
277
293
292
303
305
296
292
305
308
298
294
306
314
304
297
311
316
305
289
295
301
293
282
291
299
297
282
291
300
297
282
289
299
295
283
288
298
300
285
284
299
301
289
285
298
302
289
289
300
301
293
283
295
305
291
283
324
301
281
289
298
308
303
290
298
310
308
293
301
311
310
298
302
316
316
299
293
303
301
289
287
299
302
291
285
299
303
293
285
297
303
295
286
296
304
295
287
295
305
299
289
295
304
301
288
293
304
303
291
296
306
306
291
291
302
304
288
285
333
308
278
294
303
308
300
294
305
310
302
295
306
314
307
298
309
317
313
300
301
305
299
288
293
302
299
287
292
300
298
288
289
299
298
289
288
297
300
291
288
300
302
293
289
298
303
295
288
297
302
296
288
296
303
301
292
297
302
300
289
295
296
295
324
285
292
305
291
294
304
305
296
295
304
307
299
297
306
312
305
301
310
310
300
288
295
300
296
287
293
299
297
287
292
300
298
288
292
299
298
289
293
300
300
291
290
300
301
292
290
298
301
293
289
298
300
294
290
299
304
295
289
297
302
297
279
305
334
272
291
297
304
303
293
298
306
307
299
301
310
311
302
304
312
316
305
299
302
284
305
291
299
301
294
287
295
299
293
287
292
300
292
288
292
299
295
284
290
299
295
286
290
299
300
287
291
300
303
291
289
297
299
290
288
287
313
314
257
299
302
295
291
298
306
297
293
302
309
304
297
306
312
308
304
307
309
299
288
294
299
296
288
289
297
301
287
290
296
299
287
288
297
303
289
289
294
303
293
289
298
300
299
285
299
303
310
288
293
300
298
296
289
290
315
314
263
304
297
295
292
301
300
293
294
308
303
298
296
312
308
305
300
307
308
292
283
292
296
290
285
296
297
291
285
292
299
293
282
291
296
295
285
288
297
295
287
292
300
296
289
288
298
298
282
298
328
275
287
288
298
301
294
293
301
306
300
296
305
311
306
300
309
315
308
295
298
300
296
288
293
301
298
288
293
301
300
291
293
300
302
292
292
304
306
295
291
299
301
294
290
295
321
315
264
296
304
298
293
299
305
301
294
301
308
305
298
305
313
310
302
302
303
300
289
290
297
297
288
289
300
301
290
289
297
300
292
291
302
304
293
286
294
300
294
284
294
324
299
270
297
303
298
291
297
304
302
293
299
306
307
298
301
310
312
300
296
300
300
289
289
296
298
289
289
297
301
293
289
297
301
296
290
300
306
297
288
295
300
296
286
288
316
321
265
293
302
299
290
294
302
302
292
295
303
307
295
298
309
312
301
297
304
303
293
287
298
302
293
286
297
303
296
287
297
302
297
289
297
307
301
287
293
299
296
285
287
299
331
287
280
303
303
291
291
302
304
294
294
305
309
298
297
306
311
304
297
304
303
295
287
298
303
297
287
296
301
298
287
294
302
300
288
294
303
301
291
297
307
305
290
292
300
302
289
284
310
331
271
289
301
305
295
290
301
306
298
292
302
307
303
295
305
313
308
296
300
303
299
286
294
302
300
287
291
301
300
286
291
299
302
290
290
300
303
290
289
299
303
292
287
300
303
294
288
297
302
297
287
297
303
299
290
300
304
298
287
293
300
297
281
319
310
285
291
292
303
303
291
294
303
305
293
292
304
306
298
295
307
312
301
293
298
302
294
286
297
302
296
287
294
300
297
286
294
300
298
287
292
301
300
287
292
300
300
289
293
302
304
291
291
300
303
291
289
300
304
297
291
302
305
295
288
298
302
296
281
315
320
278
290
297
305
302
289
297
305
305
292
298
307
307
294
298
308
311
297
297
302
303
291
289
299
302
291
288
298
304
296
290
298
301
296
289
297
302
297
288
295
302
297
288
294
300
299
289
293
301
301
290
294
301
300
292
296
304
302
292
290
299
302
288
296
328
283
291
292
300
304
298
290
301
307
300
292
303
308
305
295
305
312
308
293
297
302
300
286
292
301
300
285
290
299
298
289
290
298
299
290
288
298
300
291
288
297
301
293
287
298
300
294
288
296
300
296
288
296
303
298
292
299
305
298
288
293
301
300
284
309
320
279
293
293
301
301
293
293
302
304
296
294
304
308
300
297
306
311
302
294
298
301
296
288
294
301
297
288
293
300
297
289
293
300
298
288
292
300
299
289
292
299
302
291
291
300
301
290
291
301
305
296
291
299
303
294
287
294
323
310
264
297
305
301
291
300
306
303
293
301
308
306
295
302
310
311
299
301
306
301
288
289
299
301
288
288
297
300
289
288
297
301
290
285
296
301
294
286
298
302
294
285
294
303
297
288
296
303
299
289
297
305
299
288
293
302
300
280
309
320
277
292
292
302
306
294
293
305
309
299
296
308
312
305
300
312
317
307
293
300
303
296
286
295
303
297
286
293
299
298
285
292
300
299
285
291
299
300
287
289
299
300
289
288
300
303
290
289
300
305
296
290
300
303
294
287
297
294
294
322
281
296
299
287
297
305
300
289
297
305
303
290
298
307
308
298
303
312
308
289
287
295
298
286
285
297
298
289
284
295
300
289
284
295
300
293
282
294
298
294
284
294
300
295
285
293
300
297
287
297
306
302
287
291
301
300
284
280
330
307
268
295
303
306
295
294
304
309
299
294
307
311
306
299
311
318
311
299
303
304
296
285
294
302
299
286
294
301
300
286
292
301
301
288
292
301
304
291
291
302
304
292
292
307
306
296
291
301
305
295
284
299
336
288
275
302
306
301
291
300
307
304
293
303
311
310
298
306
316
316
300
301
304
302
288
288
299
301
290
289
298
301
290
288
298
301
292
287
298
302
295
290
299
301
295
285
295
302
291
291
326
284
288
291
295
304
301
294
297
306
306
298
300
309
311
304
305
315
313
297
291
297
299
290
286
295
299
291
286
293
298
290
286
293
299
294
286
292
299
298
288
293
298
296
285
291
293
296
320
285
284
301
290
293
301
303
294
294
302
307
299
299
307
312
305
303
310
309
296
287
295
299
293
287
294
299
294
285
293
299
296
286
291
297
296
286
290
298
298
288
293
300
298
288
289
297
299
283
283
333
297
277
291
298
303
295
290
298
304
298
293
302
309
306
300
308
315
310
296
295
298
295
286
291
298
296
287
290
297
296
286
288
297
297
288
285
296
298
290
286
294
298
291
287
296
299
293
289
298
302
294
286
293
298
293
272
314
322
266
290
293
301
299
289
293
302
302
292
295
305
307
299
301
311
314
301
293
298
298
288
285
293
298
291
287
295
300
293
286
294
298
294
286
294
299
294
285
292
299
297
286
292
301
301
291
290
299
300
289
290
292
302
327
273
292
304
295
294
303
307
300
296
306
311
304
299
308
315
310
304
310
309
300
289
292
298
295
286
291
298
297
287
292
299
298
287
290
299
299
288
290
298
301
292
291
297
299
289
285
294
296
285
311
310
274
296
289
297
301
297
290
298
304
303
293
301
309
308
300
307
314
307
290
290
297
296
286
287
295
296
288
286
295
298
287
285
293
296
288
284
294
299
292
286
296
299
295
291
298
303
295
287
293
301
297
278
301
333
273
287
294
303
302
293
295
305
306
296
298
307
310
303
302
313
316
305
296
299
299
291
286
295
298
294
287
295
300
295
286
294
300
297
288
294
301
297
288
293
299
299
287
292
300
300
290
291
298
301
293
294
300
301
290
288
298
297
281
317
309
278
297
289
299
303
298
290
300
305
302
295
302
310
308
300
307
314
309
293
292
298
296
285
289
296
297
287
288
297
298
290
289
298
299
290
287
296
298
290
285
294
298
290
284
292
297
292
284
291
297
294
285
291
297
295
287
294
301
297
286
289
298
298
277
292
333
275
283
291
299
303
296
292
302
306
297
295
303
308
303
298
308
314
306
295
298
301
295
286
292
299
296
286
293
299
298
287
291
298
298
288
291
299
299
289
289
299
301
291
290
298
301
292
290
299
305
296
290
297
302
295
288
294
297
325
297
274
305
300
291
298
305
304
294
299
307
306
299
303
313
314
304
308
311
305
293
290
299
299
292
287
297
300
290
288
295
299
292
285
292
297
291
284
292
298
293
284
292
298
295
286
292
299
297
288
295
302
300
288
291
299
299
283
285
334
298
276
294
302
303
295
293
303
306
300
296
306
312
306
302
311
318
312
300
300
302
295
286
293
299
297
288
292
300
299
288
292
298
300
288
290
299
299
289
290
298
301
292
290
299
301
293
290
298
302
294
289
302
306
297
287
296
300
296
283
285
335
300
269
300
304
302
292
298
307
306
296
301
310
310
301
304
314
316
307
303
306
302
289
288
295
300
292
288
298
301
293
288
296
301
294
288
295
299
295
287
294
299
296
288
293
300
298
289
294
302
300
290
293
302
305
295
293
299
302
290
289
289
298
329
268
291
306
295
291
301
305
299
291
304
310
304
296
307
316
312
303
312
314
305
289
294
301
299
286
292
299
300
286
290
298
299
286
287
297
300
288
288
296
302
291
287
297
301
293
288
300
305
293
285
295
302
294
276
314
317
269
288
296
304
302
290
298
307
305
294
299
310
312
300
304
314
316
301
295
300
301
288
285
297
302
291
286
297
300
292
284
295
300
293
285
296
301
295
286
297
303
296
284
293
301
299
281
292
332
289
276
295
303
304
291
293
304
306
296
296
307
312
302
299
312
318
305
296
301
302
295
286
296
301
294
285
294
300
296
284
293
299
296
284
291
298
298
286
291
301
303
288
289
297
298
285
288
289
302
321
264
293
302
290
288
300
303
295
290
302
307
300
294
305
312
308
300
307
308
298
284
292
299
296
284
292
299
298
286
289
299
299
288
290
299
300
288
287
297
300
289
287
297
302
292
289
297
301
291
284
295
294
292
319
283
294
300
288
297
305
301
291
300
306
305
293
300
310
312
300
305
313
309
290
290
298
300
287
288
298
301
288
287
298
301
291
286
297
301
292
286
297
302
295
287
299
305
299
287
296
302
299
286
287
314
325
261
293
304
303
291
296
306
308
296
299
309
313
300
300
312
316
306
299
305
305
293
286
298
301
293
285
296
300
296
286
294
302
296
285
294
300
298
285
295
304
302
286
291
299
299
286
285
307
329
268
284
302
303
292
290
301
304
294
291
303
308
300
295
307
313
306
295
299
301
292
283
291
298
294
284
292
299
296
283
291
298
296
284
288
298
298
287
291
300
300
286
288
298
300
286
281
321
308
272
289
297
301
293
287
297
304
298
290
301
308
305
293
303
311
307
292
296
300
296
283
289
297
297
284
289
298
297
283
286
295
298
285
285
296
299
288
289
300
302
289
285
296
300
292
279
309
325
275
288
296
303
299
288
297
304
301
289
296
305
303
291
299
309
309
293
293
299
298
285
287
297
299
287
286
296
299
289
284
295
299
291
284
295
300
291
283
294
298
295
284
294
300
296
287
297
302
298
284
291
298
297
282
287
326
303
273
294
301
303
291
293
303
304
293
294
305
308
298
295
306
313
304
296
302
305
295
286
296
301
295
285
294
301
296
285
293
301
297
284
292
300
299
285
289
299
299
286
290
298
300
287
288
298
303
292
289
297
301
290
287
297
296
300
313
276
303
296
288
299
305
299
289
300
305
303
291
299
307
305
292
300
307
304
288
290
300
299
287
290
300
301
288
288
297
300
288
287
297
300
290
286
296
301
291
285
296
300
294
286
296
301
296
288
296
302
297
287
297
304
299
286
292
300
300
287
286
311
325
266
292
302
303
291
291
302
305
293
291
303
306
298
294
305
312
303
296
304
305
297
286
296
303
297
286
295
301
297
284
292
301
298
284
291
301
298
285
291
300
302
288
291
300
302
289
288
299
303
291
289
299
304
295
292
302
304
293
287
297
302
290
295
324
281
298
289
298
306
302
290
298
307
305
293
299
308
308
296
301
310
310
295
295
302
304
291
290
301
303
290
288
298
303
291
286
295
301
273
298
298
303
296
286
295
300
296
285
294
299
295
285
291
300
298
284
290
301
302
288
289
298
299
286
287
292
316
305
266
301
303
291
288
299
303
293
289
300
305
298
291
302
309
302
294
302
305
297
284
292
300
297
284
292
299
297
283
288
297
296
285
288
298
300
288
290
299
301
289
288
297
300
289
285
297
301
293
285
297
301
296
290
298
301
295
286
295
302
292
296
321
279
299
289
297
305
303
290
296
305
306
292
298
307
310
298
300
310
311
295
291
298
300
289
284
295
299
290
285
295
300
291
284
294
299
294
284
293
298
296
283
293
299
296
284
291
300
300
287
292
301
302
292
292
300
301
289
288
299
296
295
317
279
298
293
288
300
305
296
291
301
307
300
292
303
308
304
294
305
312
305
289
294
302
298
285
292
300
299
286
291
300
299
286
288
298
299
285
288
297
300
290
287
298
301
290
285
297
302
293
286
297
303
299
289
297
301
296
285
295
298
298
314
288
290
302
286
294
303
302
289
294
303
304
292
295
306
309
296
297
307
308
293
287
297
300
290
284
295
299
291
284
294
299
293
284
294
300
295
284
293
301
297
284
292
300
297
285
291
299
300
288
291
300
301
289
293
303
302
289
289
299
303
288
289
328
293
284
290
299
304
296
288
299
305
300
291
301
308
304
294
303
312
308
292
297
300
298
285
290
299
300
286
290
299
301
288
288
298
301
288
287
298
301
289
288
297
301
293
285
296
302
294
287
297
303
297
286
297
304
301
289
296
301
297
284
292
297
298
316
284
291
303
288
291
300
302
290
292
303
307
295
295
307
310
301
298
308
310
297
287
297
301
294
286
295
300
295
284
293
300
297
285
293
301
298
285
292
300
300
287
292
300
301
289
290
300
301
288
288
297
299
290
291
301
302
290
285
296
301
287
286
324
291
284
286
296
302
298
287
296
304
300
289
299
306
306
293
300
310
309
292
292
299
298
285
289
298
300
288
289
297
300
289
287
296
302
291
286
298
300
293
287
297
301
295
286
296
301
296
284
293
300
298
286
296
303
303
288
291
299
298
286
289
293
314
308
266
301
302
289
290
301
303
293
291
302
308
296
292
304
310
304
296
306
307
296
285
294
300
295
285
294
300
297
285
292
299
298
285
291
300
300
286
290
300
301
288
291
300
304
291
290
301
304
293
289
300
304
297
292
300
303
296
287
298
300
299
316
290
290
300
288
299
306
302
289
298
307
306
294
301
309
310
297
303
313
310
293
290
300
301
288
288
297
301
288
285
297
300
292
285
295
301
292
286
295
299
295
286
294
300
296
285
293
301
298
287
296
302
298
283
290
299
299
279
291
332
283
281
291
300
303
291
291
302
306
296
292
305
310
302
297
310
317
307
295
299
299
293
283
292
299
294
283
292
299
296
283
290
299
298
283
287
298
297
284
287
297
298
285
286
299
302
291
286
297
300
289
285
285
309
323
251
296
303
296
289
299
305
300
291
302
309
306
294
305
313
312
301
305
305
299
282
286
296
295
282
285
295
298
285
285
296
298
287
285
295
298
288
284
295
300
290
285
299
303
294
284
294
300
295
281
285
329
302
258
297
302
300
289
297
305
305
293
299
308
310
298
302
313
316
304
300
303
301
288
285
295
299
288
284
294
300
291
284
295
300
292
282
293
300
294
285
296
304
299
284
292
299
298
284
281
316
321
254
292
302
302
290
293
305
307
296
297
308
312
301
301
313
318
309
300
304
304
293
286
296
300
293
284
295
299
294
285
294
300
297
285
293
300
299
289
296
300
298
285
289
299
297
277
314
315
273
293
290
302
304
293
292
303
308
299
296
306
313
306
301
312
318
306
290
296
299
293
282
291
298
294
282
291
299
296
283
289
298
297
284
288
297
298
285
285
297
301
288
285
296
299
287
283
288
296
328
273
283
302
293
287
298
303
298
289
301
307
304
294
305
313
312
300
307
308
301
283
288
296
296
283
288
298
298
285
287
296
298
285
285
295
298
289
285
296
299
290
285
294
300
292
285
296
302
296
287
294
300
295
285
294
297
288
313
302
275
301
286
293
302
301
290
294
305
306
294
297
308
313
302
303
313
311
295
288
297
301
291
286
298
302
294
287
296
301
295
286
297
302
296
286
294
302
297
286
296
303
299
285
290
299
299
282
286
329
301
267
292
300
304
291
293
304
308
295
294
306
310
302
299
310
316
307
294
299
301
294
284
294
299
295
285
293
301
296
284
292
299
296
284
289
297
297
287
292
300
298
284
286
297
298
283
282
326
303
267
289
298
302
293
289
301
305
299
294
303
309
303
296
308
315
310
292
296
299
294
282
291
297
295
283
289
297
297
284
288
298
299
285
289
299
301
288
288
298
301
292
289
297
300
290
285
296
299
283
306
314
274
298
288
297
303
297
288
299
306
303
293
301
308
309
297
304
314
309
290
291
297
296
283
285
295
297
286
285
296
299
286
284
295
299
288
285
295
300
292
284
294
299
293
284
294
300
294
285
294
300
298
287
296
304
300
286
291
299
300
283
278
326
316
263
293
300
303
291
290
302
305
295
293
305
310
300
297
309
314
305
295
301
301
292
282
291
298
293
281
291
299
296
283
290
299
297
283
290
297
297
282
289
296
298
285
286
297
299
287
285
297
300
289
286
297
300
291
288
298
302
293
285
295
301
290
278
330
303
280
290
295
304
301
288
298
307
306
293
300
310
309
297
303
314
316
300
296
300
301
288
288
298
301
289
286
297
299
289
282
295
300
292
285
295
301
294
285
295
302
297
286
295
302
297
288
296
302
297
285
290
300
299
280
294
332
281
279
292
301
304
293
292
305
309
297
296
307
312
304
299
312
318
307
295
300
302
294
284
294
300
296
285
293
299
295
284
292
299
297
284
290
298
298
284
288
298
298
284
288
298
300
288
290
300
301
287
289
300
303
288
285
333
300
280
290
298
304
297
288
300
306
302
291
303
309
307
297
305
314
311
294
297
300
297
283
287
296
297
283
287
296
298
286
286
296
298
288
283
296
299
289
285
295
301
292
285
295
301
294
285
295
304
300
287
294
300
296
284
292
291
308
310
266
300
299
286
291
301
301
288
292
303
305
291
294
305
310
298
298
308
307
290
285
295
299
288
282
294
300
291
284
293
300
294
284
292
298
295
283
292
299
295
284
290
298
298
285
290
299
299
286
292
303
304
290
290
298
301
289
280
300
337
273
284
301
304
295
289
299
305
299
291
302
309
304
295
305
313
309
297
302
303
299
285
291
300
297
285
291
299
299
287
288
299
299
286
287
298
300
289
287
298
301
289
286
297
301
291
286
296
301
294
289
300
305
295
285
295
301
295
279
319
312
279
289
295
303
300
288
294
304
304
291
295
305
308
295
296
308
310
297
291
298
299
286
284
294
299
288
283
293
298
289
283
292
298
292
283
293
300
293
283
292
298
295
283
291
298
297
284
294
301
298
285
289
297
298
280
288
332
286
282
291
300
303
292
290
300
305
295
291
304
308
301
296
306
313
306
293
298
300
293
283
292
299
296
284
292
300
297
284
291
299
298
284
290
298
298
285
289
298
300
288
288
301
304
292
288
297
302
290
285
288
315
316
259
298
304
298
288
299
306
301
291
301
308
304
294
303
310
309
298
302
305
298
283
287
296
298
283
286
296
298
284
285
296
298
286
284
294
298
288
286
296
300
293
289
299
301
292
285
295
302
288
294
327
273
293
290
298
306
303
291
299
307
306
293
300
309
309
298
302
313
311
292
290
297
299
286
285
295
299
287
284
294
298
288
282
293
299
290
284
296
300
290
281
291
297
293
276
294
329
278
269
294
300
300
287
294
303
304
292
297
306
309
296
300
311
314
298
294
298
298
286
285
295
299
288
284
295
299
289
282
294
299
290
285
296
301
293
280
291
296
292
274
302
325
268
278
292
301
300
288
293
302
303
291
295
306
309
297
300
311
313
297
291
296
298
286
283
294
298
288
281
292
298
290
282
292
299
292
285
297
301
294
282
291
298
295
275
308
322
269
284
291
300
300
287
292
302
304
292
294
305
308
298
300
313
315
300
292
297
301
289
285
295
300
292
284
295
299
292
284
293
300
297
286
293
298
294
284
290
290
302
313
266
291
299
285
289
300
301
289
293
301
305
293
295
307
310
301
300
305
303
289
283
294
298
289
283
292
297
289
283
292
296
291
283
296
300
294
283
290
297
294
276
296
333
276
277
290
299
299
288
291
300
302
291
294
304
307
297
298
310
314
299
291
295
297
288
283
293
298
291
285
292
298
290
283
291
297
293
285
296
301
293
283
290
297
295
275
288
338
281
272
291
299
302
290
292
303
305
294
294
306
311
302
301
312
318
302
292
295
296
287
279
292
297
288
278
290
296
290
280
289
295
292
281
290
297
296
282
289
296
298
287
291
298
297
285
288
298
292
286
326
284
287
293
290
300
304
294
290
301
308
300
294
306
312
307
300
310
316
304
289
296
300
296
284
292
300
296
283
290
299
298
284
290
298
297
286
290
300
298
286
287
295
299
282
285
327
296
270
287
295
301
292
288
298
304
296
291
304
309
304
297
308
314
305
290
294
298
294
283
292
298
296
283
289
296
296
283
287
297
297
286
289
300
299
286
285
294
297
282
282
328
300
271
287
295
301
292
286
298
303
296
289
301
308
303
295
306
314
307
288
291
295
291
280
287
296
294
281
285
296
295
283
284
294
295
282
285
294
295
283
282
294
300
288
285
293
297
287
281
291
286
308
308
265
301
294
284
294
301
298
288
297
305
303
292
301
308
309
297
303
309
301
283
286
294
296
283
286
294
297
284
285
295
296
286
283
294
299
288
283
294
299
292
285
296
301
293
285
295
301
296
285
296
302
298
286
297
305
302
286
291
300
299
286
276
315
330
256
294
301
304
292
293
303
308
298
296
308
312
302
300
312
317
311
302
305
304
293
285
294
299
294
284
293
299
294
283
291
297
294
283
290
298
297
284
289
298
298
285
287
297
299
287
289
297
300
286
287
300
303
291
285
295
300
290
281
289
333
300
264
300
302
296
288
298
304
300
290
300
308
306
295
304
311
311
299
302
304
300
285
288
298
299
286
288
296
299
286
287
297
299
287
285
295
298
288
283
293
298
289
285
297
301
292
284
293
298
292
275
308
324
265
283
293
300
298
285
294
303
303
290
296
305
307
296
301
310
313
297
292
298
298
285
284
294
296
286
283
294
299
289
283
293
299
291
282
293
299
292
283
294
299
295
285
292
302
299
287
290
298
297
284
291
289
304
322
266
297
302
288
290
301
303
291
293
304
308
297
296
307
311
303
299
308
308
293
284
293
297
291
282
292
297
293
282
290
297
293
282
290
297
295
281
289
296
296
283
288
297
298
285
287
298
299
285
287
296
299
290
288
299
299
288
284
295
300
278
297
328
273
293
288
297
304
298
289
298
306
302
291
301
308
306
295
305
313
310
292
293
298
297
283
285
296
298
285
287
295
298
285
284
295
298
288
285
296
300
288
284
294
299
291
283
295
299
292
284
293
298
292
283
292
300
298
285
290
298
296
284
287
290
329
295
267
302
300
288
291
301
304
292
294
304
307
296
295
307
312
301
299
306
305
291
283
293
297
289
282
291
298
291
282
292
297
293
282
291
298
295
284
290
298
296
284
290
298
297
286
292
302
298
286
286
296
298
282
286
333
286
279
290
299
304
295
290
301
306
297
290
302
307
302
295
306
313
307
290
295
298
292
282
290
298
295
283
289
297
296
283
289
298
297
283
287
297
298
285
286
296
299
287
286
296
299
288
285
298
301
290
284
293
297
289
273
295
336
269
279
293
299
296
286
295
303
301
290
298
306
307
296
301
311
312
298
297
301
298
284
287
296
298
285
284
295
297
285
285
295
299
287
282
293
297
290
282
293
299
292
283
294
299
293
283
293
298
296
284
292
299
296
288
295
302
298
285
290
298
293
274
327
301
281
290
289
300
303
291
291
302
307
295
294
305
309
300
297
308
315
302
290
295
299
291
281
293
298
294
282
290
298
293
284
291
297
296
282
290
297
298
286
289
299
299
286
289
297
298
286
287
297
300
291
291
299
300
290
285
296
294
284
319
295
283
297
287
297
302
297
288
299
305
301
291
301
308
305
295
304
311
306
288
290
297
295
282
288
295
296
284
286
294
296
283
284
294
298
286
285
293
299
289
283
294
302
292
286
293
298
291
283
291
290
317
298
264
301
296
287
295
303
301
290
297
306
305
294
299
310
311
299
303
307
302
286
285
294
297
285
285
295
298
285
284
294
298
288
282
294
297
289
283
294
298
292
282
295
300
294
283
292
299
294
279
282
328
305
259
293
299
299
288
293
303
303
290
295
305
308
296
299
311
313
301
294
300
299
286
283
293
297
287
282
292
297
288
280
292
295
290
281
291
298
292
281
291
298
293
281
289
298
297
285
289
296
295
283
288
286
295
324
270
289
302
288
290
300
304
291
291
302
306
297
294
306
312
304
301
309
308
295
284
293
298
291
283
293
299
295
283
292
299
293
282
289
297
296
283
289
297
297
285
288
297
296
284
288
296
302
289
289
296
298
288
286
294
285
309
309
264
305
292
289
300
305
296
291
299
306
301
293
304
310
308
297
306
311
301
285
289
296
295
282
289
298
296
283
287
295
296
282
285
294
297
284
285
295
298
287
285
294
299
287
283
296
302
292
283
294
298
291
282
284
317
318
251
294
301
298
287
297
302
301
290
297
306
306
293
300
310
310
298
299
303
300
283
286
294
296
285
286
294
299
288
286
295
299
289
284
295
300
290
283
292
301
293
284
293
298
292
281
290
289
309
308
260
298
296
284
291
300
298
286
293
301
302
291
297
308
309
298
301
306
302
285
283
294
295
283
281
293
296
286
281
290
296
286
280
291
296
289
281
290
296
291
282
290
299
298
286
292
298
295
283
289
288
295
319
271
290
300
286
291
301
303
291
293
304
307
295
296
308
311
302
301
310
307
291
284
293
297
289
282
294
298
291
282
292
297
291
280
290
297
294
282
290
298
295
283
291
298
296
282
288
296
297
286
288
295
296
283
286
294
284
297
316
265
301
289
288
300
304
294
289
301
306
299
293
304
311
304
297
308
312
300
285
292
297
293
282
291
299
295
282
290
297
295
283
289
297
296
283
288
295
296
284
286
296
297
286
285
296
299
288
286
295
300
293
287
296
299
289
284
295
292
288
323
287
287
299
288
297
305
300
289
298
305
304
291
301
309
310
298
304
313
309
289
290
297
297
285
286
296
299
286
286
296
298
286
284
295
298
288
284
295
300
291
284
296
300
296
287
296
299
293
282
291
296
287
310
304
274
299
287
294
303
301
289
296
305
305
293
298
307
310
298
301
310
308
290
286
296
298
286
283
295
299
287
284
294
298
288
283
292
298
289
282
291
298
291
282
293
301
296
283
291
298
294
283
283
299
334
267
281
303
301
288
293
302
304
292
294
305
308
297
298
310
313
303
299
302
301
288
283
292
296
288
282
292
296
289
282
291
296
290
282
291
298
293
282
291
297
294
282
292
298
296
284
289
301
302
286
288
297
298
286
284
284
326
304
262
302
303
292
291
300
305
295
292
304
308
300
296
307
313
307
300
306
306
294
283
291
299
294
283
292
298
295
283
291
298
295
282
288
297
296
283
288
297
297
285
287
297
298
286
287
297
300
288
285
296
299
291
288
299
300
289
285
294
299
281
292
326
271
291
287
296
303
297
287
297
304
300
291
298
307
305
293
302
311
308
291
291
297
296
282
285
294
297
285
286
296
299
286
286
295
298
286
284
294
300
289
284
295
300
292
285
296
303
296
284
294
300
295
284
289
295
329
284
275
304
301
289
297
304
304
291
298
308
308
296
301
312
314
303
302
307
303
288
285
295
299
287
284
294
299
288
283
294
298
288
282
292
297
291
281
291
297
292
282
290
298
293
282
291
297
295
285
294
301
298
284
289
297
298
274
294
333
272
286
290
299
302
289
290
301
304
293
291
304
307
299
296
307
313
302
290
295
296
288
281
291
298
293
283
292
299
295
283
291
298
296
284
289
298
297
284
289
297
298
285
288
299
300
287
289
299
301
288
288
301
303
290
286
297
301
289
278
288
341
286
271
299
302
296
288
298
304
298
289
299
306
303
292
302
311
309
297
299
301
295
280
286
294
293
281
284
294
295
283
285
293
297
283
281
292
296
284
281
293
297
288
282
293
298
287
280
291
297
291
281
294
300
295
282
290
297
292
282
279
306
328
252
289
302
300
286
292
302
302
291
295
306
307
295
298
308
311
300
297
303
301
288
284
294
297
288
283
294
299
290
283
293
298
290
282
292
298
293
283
292
299
294
283
292
302
300
286
290
299
297
284
287
288
316
308
258
298
301
289
291
303
304
292
293
304
309
299
296
308
314
304
302
306
306
291
283
294
299
291
282
292
298
292
283
290
297
293
281
291
298
295
283
290
298
296
283
289
297
297
284
288
298
301
288
287
296
298
285
285
286
299
326
264
289
303
291
287
298
304
294
290
301
306
300
292
303
310
304
297
305
306
296
281
288
294
292
279
286
294
293
280
286
295
295
282
285
294
296
282
284
294
297
286
284
295
297
288
286
296
297
287
282
292
298
277
288
328
267
290
285
295
302
296
286
296
304
301
290
300
308
308
296
305
313
310
291
292
299
296
282
287
296
297
285
285
295
296
285
285
294
298
285
284
296
299
289
284
294
299
291
287
297
301
292
283
293
300
290
276
322
307
272
288
295
302
301
287
297
304
302
292
298
307
308
296
300
310
311
295
291
297
297
285
283
294
299
287
284
295
297
288
283
293
298
289
281
293
298
292
284
295
300
292
281
291
297
294
275
293
335
277
274
293
300
300
286
293
303
304
292
295
304
305
295
298
308
313
298
293
298
298
287
283
293
298
287
283
292
297
289
281
293
298
291
281
291
296
291
281
290
297
294
282
290
301
298
285
290
297
296
283
287
289
321
301
265
301
300
288
291
300
304
291
292
303
306
296
295
305
310
300
296
303
304
292
283
292
297
291
283
291
297
292
281
291
297
292
281
288
297
293
282
289
297
296
284
289
299
298
285
288
299
303
288
288
295
298
286
285
290
297
325
275
289
303
292
286
299
304
294
289
300
306
298
290
302
307
303
294
302
306
297
282
290
296
295
281
288
297
295
282
288
296
296
282
287
295
296
283
284
295
297
285
284
294
298
287
284
296
299
289
284
293
301
293
285
292
298
291
282
292
290
291
319
275
294
297
284
294
301
301
288
294
304
302
291
297
306
307
295
299
308
306
289
288
296
297
286
285
294
298
286
282
293
297
286
281
293
297
288
281
293
297
290
283
290
298
292
282
290
298
295
283
291
299
297
285
294
302
300
285
290
298
298
281
281
328
305
270
291
299
303
290
289
301
304
294
291
303
308
299
295
306
310
305
293
300
302
292
283
292
298
293
281
291
297
292
280
288
295
293
281
287
295
296
282
287
296
296
283
285
296
297
284
286
296
298
287
288
297
299
288
284
294
298
281
278
330
290
279
285
293
300
295
286
297
304
298
290
299
307
303
293
301
309
306
289
292
296
293
281
285
294
295
282
285
294
296
282
284
293
296
284
282
293
298
287
284
294
297
289
284
294
299
289
282
293
302
296
283
292
298
293
283
284
292
331
274
278
302
299
286
293
302
303
290
295
305
306
294
298
307
309
299
299
306
302
286
284
294
298
289
283
294
298
289
283
294
299
289
281
292
298
293
283
292
298
293
283
291
298
297
285
293
298
296
284
289
298
284
289
319
263
299
288
290
300
303
291
292
303
306
296
294
306
310
301
299
309
311
297
286
294
298
290
282
292
299
292
282
290
297
293
281
291
297
295
282
287
296
295
283
288
297
297
287
290
299
298
284
286
296
298
280
282
331
293
266
289
298
303
292
289
300
306
298
293
303
309
304
296
307
314
307
293
296
300
294
281
291
297
294
282
289
296
295
281
288
296
297
284
287
298
301
288
287
296
298
285
285
293
294
314
288
270
302
291
287
296
302
295
289
299
306
299
293
305
311
307
298
305
307
297
281
289
296
294
281
288
295
296
283
289
296
296
284
285
296
297
287
289
297
298
286
284
295
300
278
296
325
272
286
287
297
303
295
290
299
306
300
290
302
308
304
295
306
313
305
289
291
296
293
282
288
296
296
283
286
295
296
282
285
294
296
286
289
298
298
285
283
292
296
283
281
325
299
269
285
293
299
293
286
297
303
298
288
300
306
304
293
303
312
306
288
291
297
293
281
288
296
294
282
287
296
298
284
287
297
301
290
288
296
299
288
285
295
294
290
317
286
288
294
287
298
303
296
289
299
305
299
291
301
309
306
294
304
308
300
284
289
296
295
282
288
297
297
282
288
296
297
284
285
298
300
290
288
295
298
285
283
293
293
288
320
282
293
292
284
295
301
294
286
297
302
296
289
299
305
304
293
302
307
300
284
290
297
297
282
289
298
298
285
288
297
298
286
290
298
300
288
288
299
306
296
290
298
300
289
284
295
293
296
317
277
300
295
287
296
302
297
287
297
303
300
289
298
306
304
293
300
307
301
285
288
297
297
284
288
296
299
285
286
296
298
285
285
295
300
287
285
295
301
289
284
295
299
292
284
293
299
291
284
294
302
298
284
293
299
293
282
291
295
289
313
296
283
301
285
290
300
300
288
290
301
304
290
293
303
306
295
295
305
307
291
285
294
298
288
283
293
298
291
282
293
298
290
280
290
297
292
281
290
297
295
282
290
296
296
281
290
298
296
284
288
296
299
287
290
298
297
285
284
294
296
277
305
313
280
292
284
295
300
292
286
296
301
294
288
298
305
299
289
300
305
300
285
290
296
293
281
288
296
294
282
287
296
294
282
287
296
297
284
285
296
298
285
287
296
297
285
283
294
299
288
284
295
300
290
284
295
302
295
284
294
300
294
285
290
291
314
303
272
302
298
287
294
302
301
289
295
304
303
292
297
305
307
295
297
306
303
288
286
295
298
286
282
293
297
287
282
292
297
289
281
293
297
290
283
292
299
292
283
292
298
295
283
292
299
297
284
292
302
300
284
290
298
298
284
281
296
334
274
280
300
300
288
289
300
303
292
291
302
306
297
292
304
310
301
295
302
303
293
283
291
299
292
282
291
297
294
281
289
297
294
282
288
297
296
282
287
296
296
284
287
296
299
285
288
297
299
286
288
300
302
288
284
296
300
289
274
311
322
267
287
296
303
295
287
297
304
298
288
298
305
303
291
300
309
308
293
295
300
298
283
288
296
297
284
286
297
298
284
286
295
297
285
284
294
298
287
283
294
299
288
282
293
300
294
285
291
297
291
281
290
286
310
306
261
303
296
285
293
302
300
288
296
306
304
293
297
308
309
297
301
306
303
286
285
295
296
286
285
295
299
288
283
294
298
289
283
293
298
290
283
293
302
294
282
291
298
292
281
287
295
322
281
266
300
297
286
292
302
301
288
293
304
306
294
298
307
310
299
298
304
301
286
283
294
297
286
281
292
296
289
282
290
296
289
281
291
297
294
284
291
296
291
281
289
294
291
306
296
273
297
284
291
301
300
287
292
302
304
292
295
305
308
297
298
307
305
289
283
293
295
286
281
292
298
288
282
292
297
290
281
291
298
294
284
290
296
291
281
290
292
297
311
279
284
299
284
292
301
301
288
294
304
304
293
295
307
310
297
298
306
304
288
285
295
299
288
284
294
298
289
283
293
299
291
283
293
301
298
287
292
297
292
281
289
293
292
315
286
284
298
283
289
298
298
286
290
301
303
290
293
303
307
295
295
305
303
288
284
293
298
288
283
294
298
289
282
292
298
291
282
293
301
299
285
293
297
292
281
290
290
293
316
281
288
299
283
289
299
299
285
291
301
303
289
293
303
307
296
296
305
303
289
285
294
297
288
282
293
299
289
282
293
299
291
282
292
298
292
282
292
299
295
283
291
298
298
286
295
300
296
282
288
296
297
276
300
322
276
288
289
297
300
287
288
297
303
292
289
301
306
296
292
303
309
298
289
296
300
292
283
293
299
293
282
293
298
294
282
290
297
295
282
288
297
295
282
289
297
298
284
288
298
299
285
287
297
300
286
287
297
301
290
287
294
298
288
284
293
291
309
304
276
305
295
287
297
302
298
288
298
304
301
290
299
307
304
292
300
306
301
285
289
296
297
284
288
297
298
284
286
296
298
284
284
296
297
286
284
296
298
288
284
294
298
290
283
294
299
292
283
293
299
293
283
293
300
298
284
293
297
294
283
291
295
293
313
287
288
301
286
290
300
302
288
290
301
304
292
293
303
308
295
294
304
305
290
284
293
298
289
284
293
299
291
282
294
297
291
281
290
298
292
282
290
297
293
281
289
296
294
282
287
297
296
283
288
296
297
284
286
298
302
288
286
296
298
286
285
290
303
319
267
291
302
290
286
296
303
294
287
297
304
297
289
299
307
302
292
300
303
295
282
288
296
295
281
287
297
296
283
288
296
295
282
285
294
295
283
284
294
297
284
282
293
296
286
284
293
297
288
282
294
298
289
285
297
300
291
282
292
298
293
277
314
307
277
287
294
300
299
285
294
302
302
289
294
303
303
291
296
306
308
293
292
298
301
287
285
297
300
288
285
294
298
288
282
293
298
289
282
292
298
291
283
293
300
293
284
292
299
294
283
293
300
296
282
289
297
296
280
288
325
290
272
292
299
301
290
290
302
305
292
292
299
309
296
293
305
310
300
290
296
298
288
280
291
295
290
281
291
297
291
281
290
297
293
281
289
298
295
284
290
298
296
284
291
300
298
285
286
296
297
280
285
328
286
276
290
299
302
291
288
300
305
295
291
304
308
300
295
307
314
305
290
294
298
292
281
290
298
295
282
289
296
294
282
288
296
295
281
287
295
296
283
286
297
297
286
289
298
296
285
283
295
298
274
291
322
263
288
286
297
301
293
286
297
304
299
291
300
307
304
293
306
313
305
288
291
296
292
281
288
296
293
281
286
295
293
281
284
293
295
281
284
294
295
281
283
293
297
288
285
295
296
285
279
290
290
284
314
283
281
293
283
293
300
295
286
295
303
300
288
298
305
304
292
300
308
301
284
286
294
294
281
284
293
295
282
284
294
296
283
284
293
297
285
283
298
300
288
283
293
298
288
278
296
330
280
269
297
301
297
286
296
303
300
289
298
306
305
294
302
312
311
294
295
299
298
284
287
296
297
285
287
296
298
285
285
295
298
287
285
298
302
289
284
294
299
290
279
294
329
288
267
296
299
295
285
294
302
299
288
297
306
303
292
300
309
309
292
292
297
295
280
285
294
296
282
284
294
297
284
283
293
297
285
283
296
299
288
280
292
295
289
279
284
323
303
259
294
298
294
285
294
302
298
288
297
305
304
291
299
308
309
294
294
298
296
283
285
294
296
282
284
294
296
285
283
293
295
285
282
293
298
289
287
299
299
289
282
291
297
289
270
317
313
268
284
291
299
295
283
293
301
299
289
296
305
305
293
300
309
309
290
289
295
295
283
283
293
296
284
282
293
296
284
280
292
296
287
281
292
296
288
280
290
295
291
282
291
299
295
284
290
296
293
281
289
286
295
322
266
293
300
286
291
300
301
288
292
302
304
291
295
306
309
298
299
306
303
289
281
292
296
286
281
292
296
289
280
291
296
290
280
290
296
290
280
289
297
293
280
289
296
295
283
288
296
297
285
291
297
297
284
286
296
290
285
323
277
292
291
286
298
301
292
288
299
305
297
291
303
308
302
293
306
310
298
285
291
297
292
280
289
295
293
281
288
295
293
281
287
295
295
281
284
294
296
286
288
296
296
284
283
294
296
277
295
321
269
283
284
295
301
292
285
297
302
297
289
299
306
301
292
302
308
300
283
289
294
291
279
286
295
294
281
287
296
295
283
285
295
296
284
286
296
297
285
285
294
298
285
287
296
299
286
281
292
298
287
271
310
321
264
285
293
299
294
283
294
300
298
286
297
305
303
291
301
309
308
290
290
297
295
280
285
293
295
281
282
293
296
283
282
293
296
284
282
291
297
287
282
293
297
288
282
293
299
290
283
297
301
294
282
292
299
294
281
280
322
313
259
294
299
298
286
292
301
302
289
294
304
306
294
295
308
309
297
294
298
298
284
282
293
296
285
280
292
297
287
281
292
296
289
281
291
297
291
282
291
297
293
281
290
297
294
283
289
298
296
283
288
296
299
287
289
297
298
285
286
297
290
290
318
274
296
290
286
298
302
292
288
300
306
298
290
302
308
301
295
306
311
300
285
292
298
293
282
291
297
293
283
290
297
296
282
288
296
296
283
286
296
297
284
285
296
298
286
285
298
303
291
289
300
306
293
288
297
302
293
286
288
302
328
266
288
303
296
287
296
304
300
288
297
305
303
291
300
308
308
297
300
304
299
284
286
294
297
283
285
294
296
284
283
293
296
284
283
293
297
286
282
293
297
288
281
291
296
289
281
291
298
292
280
291
297
293
280
288
297
296
282
287
294
294
282
287
287
298
320
266
294
300
287
289
299
302
290
290
301
305
295
294
305
309
300
295
305
306
291
283
291
296
289
279
290
298
290
280
290
296
293
282
290
297
294
282
288
297
296
282
288
296
296
282
287
296
297
285
286
296
300
289
288
296
298
287
284
295
289
287
322
274
294
294
286
297
302
297
288
298
304
300
291
301
307
305
294
304
310
303
286
290
297
295
281
288
296
296
284
286
296
296
283
284
293
296
285
283
294
298
286
283
294
298
288
284
294
300
293
286
296
298
291
282
292
297
283
298
315
270
297
286
294
302
300
288
295
304
304
290
297
307
307
296
301
310
309
290
287
295
297
285
283
293
297
286
281
293
296
286
281
291
297
288
281
291
297
291
281
291
296
294
283
290
295
293
280
288
296
285
289
317
269
294
285
288
298
300
286
289
300
303
291
292
304
307
296
296
307
307
291
283
292
295
285
280
291
296
288
280
290
297
291
280
291
298
292
282
291
299
295
282
291
298
297
283
288
298
300
287
291
298
297
284
287
296
286
297
313
266
301
288
287
298
301
292
288
299
304
295
290
302
308
301
293
305
309
297
282
290
295
290
279
288
295
292
279
288
296
294
281
286
296
295
281
286
294
296
283
284
294
296
283
284
292
297
286
286
296
296
286
282
292
296
276
295
320
266
293
284
294
301
295
286
296
303
300
289
300
306
305
293
302
311
306
288
289
296
295
281
285
295
295
284
283
294
296
284
283
294
296
285
281
293
297
287
282
292
298
292
285
293
297
291
281
291
292
290
315
283
283
299
285
294
302
298
287
295
303
303
290
297
305
306
295
299
308
303
285
285
294
296
283
283
297
301
290
287
298
302
291
286
297
301
292
285
296
300
292
287
298
303
295
284
294
300
294
276
297
332
271
280
294
302
300
288
294
303
302
292
295
306
308
296
298
309
311
296
289
297
298
286
282
293
297
287
281
292
296
286
279
290
295
288
280
290
296
290
281
290
296
292
280
289
296
294
281
289
300
297
282
286
295
295
281
276
294
334
264
279
298
300
287
287
298
302
291
289
300
304
295
291
303
309
302
293
300
299
291
281
290
296
292
280
288
296
292
280
288
294
293
280
287
295
294
281
286
295
295
283
286
295
296
284
285
294
298
285
288
299
300
288
282
294
298
288
270
304
330
260
285
297
300
295
285
296
302
299
289
298
306
304
293
301
311
308
294
294
299
296
282
288
296
296
283
284
294
296
284
284
294
297
285
284
294
297
285
282
293
297
288
281
291
297
290
281
292
298
291
281
294
300
296
281
292
297
295
283
278
310
323
251
289
300
299
286
290
301
303
290
294
304
307
294
296
306
310
300
297
302
301
286
282
293
297
288
283
293
297
289
282
291
299
291
281
291
298
292
281
290
297
293
282
289
297
296
282
291
299
297
282
287
296
297
279
277
322
306
259
290
297
300
290
287
297
302
292
288
301
306
299
293
305
312
303
291
295
297
290
280
290
296
291
281
289
297
292
281
288
295
294
282
287
295
295
282
287
296
297
283
286
295
296
285
285
295
301
289
286
295
298
288
281
294
288
289
320
269
293
293
284
295
301
296
285
296
304
300
290
300
308
306
295
302
309
302
284
288
295
296
281
285
295
296
283
285
294
296
284
283
293
296
285
282
293
297
287
283
292
298
289
283
292
298
291
283
293
298
295
286
295
298
293
282
291
296
281
301
312
270
301
285
293
301
301
288
293
303
305
293
296
306
309
296
298
309
309
292
285
294
298
286
283
294
298
289
281
293
297
290
281
291
296
290
281
290
297
294
283
290
297
294
282
290
297
296
281
287
295
299
285
288
294
296
283
286
289
289
315
287
274
301
287
286
297
302
292
288
300
305
297
291
304
309
303
296
308
308
297
283
292
298
295
283
291
299
295
282
290
296
295
283
287
295
295
283
287
297
298
284
286
295
298
285
285
295
297
286
288
298
301
287
282
294
298
286
270
317
314
265
287
295
302
297
286
296
304
299
289
298
307
304
292
302
310
309
292
293
297
295
281
284
294
295
280
284
295
296
282
282
293
295
283
282
292
296
286
281
293
297
288
282
293
297
291
282
293
298
292
284
294
301
295
281
290
297
294
280
275
318
315
253
293
299
299
286
292
301
303
291
293
304
306
295
296
307
312
301
296
302
300
286
282
293
297
288
283
294
298
289
282
292
298
291
282
292
297
292
282
290
297
294
282
289
296
295
280
289
297
299
284
286
295
296
283
285
286
302
317
258
291
300
287
287
299
304
291
288
301
305
297
291
303
309
302
295
304
305
293
282
291
297
291
281
291
297
292
280
288
295
293
280
289
297
295
281
288
297
296
283
286
298
300
284
285
298
298
280
280
293
300
310
280
276
307
286
280
298
305
292
287
298
304
298
290
299
307
304
296
301
302
296
281
286
295
293
279
284
294
294
282
285
293
294
282
282
292
295
283
282
292
298
287
285
292
295
285
279
290
289
291
313
271
289
293
282
294
300
295
285
294
303
299
290
299
306
305
294
302
307
300
283
286
293
294
280
285
293
296
282
284
294
295
283
283
293
296
284
280
293
297
286
283
294
298
292
287
296
299
291
283
293
299
288
286
323
281
290
286
293
301
299
288
294
304
303
290
296
306
306
293
298
309
308
288
287
295
295
284
283
294
297
284
282
294
297
285
281
291
296
287
280
291
296
288
280
289
297
290
281
295
299
294
281
289
297
293
275
290
325
281
273
291
298
298
285
289
299
302
288
291
302
306
292
294
306
310
296
290
297
298
286
281
293
297
288
282
293
299
290
281
292
298
291
281
290
296
292
281
290
298
296
282
291
300
301
286
290
298
298
284
288
293
295
310
288
281
303
288
289
299
304
292
290
301
306
295
292
302
310
298
296
305
308
294
285
293
299
293
283
293
301
294
282
291
300
296
278
296
303
297
284
289
299
296
283
288
297
298
286
288
299
300
285
284
295
298
287
279
300
330
270
274
297
301
291
288
297
304
295
288
300
307
300
291
303
311
306
292
297
299
294
281
289
296
294
280
288
296
295
282
285
295
295
282
284
294
298
287
286
294
297
285
282
293
296
283
306
294
277
290
282
294
300
292
285
296
303
296
288
298
306
303
291
302
308
298
283
288
295
293
281
286
295
293
280
285
294
294
280
283
293
296
283
283
294
299
289
284
293
297
284
281
293
288
290
313
271
292
290
281
293
301
294
286
295
302
298
287
297
305
302
292
300
304
299
282
288
296
296
282
287
295
296
282
286
293
297
281
286
297
298
288
286
299
297
288
281
292
299
286
278
322
297
278
287
295
301
295
283
295
302
298
289
298
304
303
290
301
309
305
288
291
296
296
283
287
297
296
283
286
296
296
283
285
295
298
286
286
299
304
288
283
293
298
288
281
284
316
307
260
295
298
292
283
294
299
295
285
294
301
298
288
297
306
303
290
295
298
295
281
287
295
296
284
287
296
297
283
286
294
298
284
283
294
297
286
284
296
303
293
285
293
298
288
281
289
289
311
293
272
301
293
283
293
299
295
284
294
301
299
288
295
304
305
292
299
304
301
283
288
297
298
285
285
295
298
285
285
295
299
286
285
296
299
288
282
294
299
290
283
293
299
292
284
295
304
298
285
290
298
294
282
283
298
330
267
284
301
298
285
291
300
301
286
292
302
304
289
291
303
307
294
294
301
302
287
283
293
298
286
282
293
298
289
282
292
297
289
281
291
298
291
282
290
297
294
281
290
297
293
281
288
298
299
286
294
300
296
282
287
296
293
274
314
303
280
288
286
297
301
289
289
299
303
292
289
300
307
298
293
303
310
299
285
292
297
292
281
291
297
292
280
289
297
295
281
288
297
295
281
287
296
297
283
287
297
298
284
286
294
299
287
290
299
298
284
283
293
297
274
292
323
266
288
283
293
301
292
285
295
301
297
288
297
306
301
290
300
308
303
286
290
296
294
281
288
297
294
281
286
295
296
281
285
294
295
283
283
293
297
284
283
295
302
291
282
291
296
287
282
289
294
316
282
273
301
293
283
293
301
298
285
295
304
301
289
298
307
306
294
300
304
300
283
286
295
296
283
286
295
296
284
283
293
296
284
283
294
299
289
288
298
299
288
282
294
299
284
283
322
285
280
285
292
300
296
286
294
302
299
288
296
305
304
291
299
308
305
286
288
296
295
282
284
294
297
283
284
294
297
284
282
293
297
285
282
295
302
291
281
293
297
288
281
286
296
324
274
279
301
294
284
293
301
297
286
294
301
301
288
295
306
304
292
296
300
299
283
285
294
295
283
284
295
297
283
283
293
297
286
281
292
296
287
280
293
298
293
284
293
297
289
279
290
291
285
317
289
286
296
281
292
300
298
285
293
303
301
287
295
304
306
292
297
307
304
286
285
294
296
283
284
295
297
285
282
293
297
285
281
292
297
288
282
291
298
290
282
292
299
293
283
292
299
294
285
295
304
299
283
290
297
296
279
277
327
309
264
291
297
299
286
289
298
302
288
289
301
305
293
292
303
308
297
291
297
298
288
281
292
298
290
282
291
298
292
281
292
297
292
280
290
299
295
282
290
297
296
282
288
298
297
284
288
296
297
285
287
298
303
290
287
296
298
285
284
292
293
318
289
278
302
290
286
297
302
294
287
298
305
299
289
300
307
302
293
302
305
298
282
289
297
294
281
288
295
296
281
286
295
296
281
285
294
296
283
285
294
297
284
283
293
297
285
283
294
302
291
283
292
297
288
281
286
295
322
276
280
302
294
283
294
301
298
286
296
304
302
290
298
307
306
294
298
303
299
281
284
294
295
281
283
293
295
282
282
292
294
282
280
291
295
284
280
290
296
286
280
292
297
290
282
290
296
290
282
293
302
294
281
289
296
293
279
277
317
316
258
291
298
298
284
290
300
300
288
290
302
304
292
294
304
309
298
293
298
298
285
281
293
297
286
282
292
298
288
282
292
297
289
280
290
298
292
281
291
298
293
281
290
298
296
282
290
299
298
285
290
300
301
288
289
297
298
285
286
293
285
312
303
274
303
288
285
297
302
291
287
299
305
296
291
301
309
301
294
305
309
297
282
291
296
291
280
288
296
293
280
288
295
294
280
287
294
292
279
284
294
295
281
282
294
295
282
284
294
299
284
283
295
296
289
286
296
302
288
282
293
299
290
273
301
332
266
281
296
300
296
283
296
303
300
288
295
306
301
294
300
307
309
289
293
296
295
282
284
294
295
286
282
296
293
285
283
293
296
285
283
295
299
288
282
296
296
289
284
293
300
296
285
293
300
292
284
292
294
297
314
275
290
299
284
292
300
299
285
294
305
302
290
295
305
309
295
300
305
304
285
284
293
293
282
288
290
298
283
279
291
295
286
280
292
297
287
282
289
303
293
280
292
299
293
280
286
294
313
286
269
302
293
283
290
300
299
289
292
303
302
291
295
306
308
293
294
302
302
283
284
296
295
285
284
295
294
287
282
294
299
287
283
293
297
291
285
297
301
290
283
292
298
295
281
305
317
281
279
293
301
296
285
291
302
301
286
289
303
300
290
293
302
304
287
285
291
294
282
280
290
295
284
279
291
295
285
278
289
295
286
279
291
299
290
278
287
293
288
277
285
290
312
291
269
297
294
281
289
299
297
283
291
301
301
289
293
304
306
293
293
298
299
284
282
292
296
284
281
293
298
286
282
292
297
288
281
292
299
291
282
293
300
293
281
291
298
294
282
290
298
295
284
292
303
300
283
288
297
297
283
282
302
327
267
285
297
300
287
287
297
301
289
288
300
303
293
290
302
308
298
292
300
302
290
282
293
298
292
282
293
299
294
281
290
298
294
282
290
298
294
282
290
297
296
282
289
297
298
283
288
297
299
288
291
301
299
285
285
294
297
282
282
327
293
280
284
294
300
290
285
296
303
295
288
299
305
298
289
300
306
301
287
292
297
293
281
288
297
293
281
288
295
295
280
286
295
296
281
284
294
296
283
285
296
298
285
284
295
298
287
284
294
300
290
285
294
298
287
281
293
297
283
305
311
283
298
285
295
303
299
287
295
304
301
289
296
305
304
291
298
308
304
286
287
295
295
282
285
294
297
282
284
294
297
284
282
294
297
284
282
292
298
288
282
293
297
290
282
292
298
291
284
295
302
295
281
289
298
293
276
285
333
295
274
293
299
299
285
291
300
301
288
292
302
304
291
294
304
309
295
291
298
299
285
282
293
297
287
281
292
297
288
281
291
298
289
280
290
296
290
280
290
296
292
281
290
297
297
286
291
298
295
282
288
297
287
285
323
275
294
285
287
298
300
287
290
300
303
291
291
302
305
296
292
305
307
292
284
291
297
289
281
292
298
291
282
291
298
292
281
291
297
293
281
290
297
294
280
289
298
299
284
289
296
296
282
286
294
289
302
304
270
297
285
286
297
300
288
286
298
303
293
289
301
307
298
293
303
305
292
281
290
296
288
279
289
296
291
280
288
296
292
279
287
296
294
281
287
297
295
282
290
296
296
282
285
295
296
280
280
325
300
270
287
295
300
288
284
297
302
292
288
299
306
297
290
303
309
301
287
292
297
291
280
290
297
292
280
289
296
293
280
289
296
295
281
287
296
295
282
287
296
299
286
290
298
298
284
284
294
295
276
305
308
280
290
283
294
299
290
285
295
302
295
288
299
305
300
291
302
307
299
284
291
296
293
279
288
296
295
281
286
295
295
282
286
295
295
281
285
295
297
284
284
293
298
286
288
297
299
286
281
294
298
281
282
327
284
283
283
294
300
292
284
295
302
296
287
297
305
301
289
300
307
304
287
292
297
295
281
288
296
295
282
286
295
296
282
285
294
297
283
285
295
298
285
284
294
298
288
286
296
298
287
281
290
296
283
277
325
294
280
284
292
298
294
283
292
300
299
286
295
303
300
288
296
306
305
287
288
296
295
281
285
295
296
284
285
294
297
284
284
294
298
286
283
295
298
286
283
293
298
288
283
296
303
294
282
292
299
292
280
282
318
312
261
293
298
296
285
292
301
299
286
294
302
303
289
295
304
307
293
293
298
298
282
282
292
296
283
282
292
297
284
282
292
297
287
280
292
297
288
281
292
298
290
282
291
298
294
285
293
299
294
281
290
296
286
287
324
274
294
284
290
298
299
285
290
301
302
288
293
303
307
294
295
306
308
289
283
293
296
285
281
292
297
287
281
292
298
289
281
291
297
290
281
291
297
292
280
290
297
294
281
291
300
299
284
289
296
296
281
286
285
310
310
261
298
300
286
288
299
302
290
289
301
306
294
293
304
310
299
294
303
304
291
282
292
298
290
282
292
299
293
282
291
298
293
281
290
299
296
281
290
299
297
282
290
300
300
287
291
297
298
283
288
297
291
288
322
276
293
289
288
299
303
291
288
300
305
295
290
302
307
299
294
305
309
296
283
291
298
290
280
289
297
292
280
289
296
293
280
288
296
295
280
287
295
295
283
286
295
296
283
288
299
301
285
283
294
299
285
277
290
333
280
272
297
300
290
285
296
302
294
288
299
305
300
290
301
309
304
293
298
299
292
279
287
295
294
280
286
294
294
279
284
294
293
279
283
294
294
280
283
293
297
284
283
293
296
286
286
296
299
285
281
291
297
280
280
330
282
283
284
292
299
292
283
293
301
297
285
295
304
302
291
299
309
306
287
289
297
295
280
285
294
295
280
284
293
297
283
283
294
297
283
283
294
297
285
282
293
298
286
282
295
302
293
284
292
298
289
280
287
290
324
286
276
301
296
284
293
301
299
286
294
303
301
289
296
307
308
295
298
304
299
283
284
293
296
283
284
293
297
284
282
293
297
285
281
293
298
286
281
292
298
289
283
293
300
293
285
297
302
294
282
292
299
294
273
302
332
269
283
292
301
300
286
291
301
302
289
293
303
306
292
296
306
309
294
289
295
297
283
282
291
297
286
282
292
296
287
281
291
297
288
280
291
298
291
281
292
298
294
283
295
300
295
281
291
298
295
275
289
334
285
273
293
298
299
286
290
300
303
289
292
303
306
294
294
307
311
296
291
296
298
285
282
292
297
286
280
292
296
287
279
291
296
290
280
290
296
291
279
288
296
291
279
288
298
295
285
289
296
294
280
286
295
287
286
323
274
294
286
287
298
301
287
288
299
304
292
291
303
306
297
293
306
310
295
284
292
298
289
280
291
296
291
281
292
297
292
281
289
296
293
281
289
296
295
280
288
296
295
282
287
296
298
286
289
295
295
281
284
294
288
285
324
275
293
288
284
295
301
290
286
298
305
295
289
301
309
302
294
306
311
299
283
291
296
290
280
289
296
294
281
289
297
295
280
287
295
296
281
286
296
296
282
285
294
296
282
284
293
297
286
287
296
298
284
282
294
298
276
292
328
272
291
285
296
300
293
286
296
304
299
288
298
307
303
291
301
309
303
285
289
295
293
279
285
293
293
279
283
292
293
280
284
293
294
282
282
291
294
282
280
291
296
285
281
292
297
286
283
297
299
290
280
293
297
291
274
292
333
278
272
294
300
296
281
293
301
299
286
295
303
303
291
298
309
309
295
294
298
297
282
283
294
296
284
284
293
297
284
282
293
296
285
280
292
297
287
280
292
298
289
283
294
300
290
280
290
297
292
273
294
331
272
275
292
298
297
282
291
299
300
286
292
302
303
290
296
309
309
293
289
294
296
282
281
291
295
283
280
291
295
283
279
289
295
284
278
289
296
287
278
289
295
288
278
288
295
289
278
291
297
294
278
288
297
293
277
276
323
310
260
291
297
301
286
290
299
302
288
289
301
305
293
294
306
312
298
293
297
299
287
282
291
296
287
279
290
296
288
278
291
295
290
279
289
296
292
280
289
297
293
279
289
296
293
281
290
299
295
281
284
293
296
274
280
336
284
275
287
295
299
287
287
298
301
291
287
299
306
297
292
305
310
301
288
294
297
288
279
289
296
290
279
288
295
290
278
287
295
292
279
286
294
294
280
286
295
295
283
286
295
299
287
288
294
297
283
283
294
288
296
314
266
298
289
285
297
301
293
287
298
304
297
290
301
307
301
292
305
308
296
281
289
296
292
280
287
295
293
280
288
296
295
281
286
295
296
282
285
294
297
285
286
294
297
282
282
292
290
286
315
279
288
290
283
294
301
292
285
297
305
296
289
301
308
302
293
305
308
299
283
290
297
293
280
288
295
293
279
287
295
294
280
285
294
296
282
285
294
298
285
285
295
301
288
285
293
298
285
282
289
290
319
288
275
300
289
283
295
300
294
285
296
304
299
289
299
306
305
292
302
305
296
278
285
294
291
278
284
294
295
279
283
293
293
280
282
291
294
280
282
293
295
284
281
292
296
286
285
295
300
287
281
291
297
284
274
329
300
277
285
292
299
294
283
294
301
299
287
297
306
304
291
301
310
308
289
289
296
295
281
285
295
298
283
284
296
296
284
283
292
296
282
281
293
298
286
282
293
298
289
283
292
298
291
285
296
300
291
282
291
298
290
271
315
315
272
284
290
300
297
285
293
302
302
288
295
304
306
292
297
308
309
293
288
295
297
282
281
292
296
284
282
290
297
284
280
290
296
286
279
290
296
288
279
289
299
292
280
288
294
290
280
287
287
313
298
263
297
295
283
288
298
298
284
289
300
302
290
292
304
306
296
296
301
300
284
281
291
295
284
279
291
296
286
279
289
296
286
279
291
296
290
280
290
297
291
280
290
297
294
280
291
299
297
280
287
296
295
280
276
307
328
256
286
298
297
285
287
298
301
288
289
299
304
293
291
304
310
299
291
298
297
287
279
289
294
287
277
289
295
290
278
289
295
290
278
289
296
291
279
288
296
295
281
288
296
299
285
289
297
297
284
286
296
285
301
314
270
302
288
286
297
302
290
287
298
304
295
290
301
309
301
293
305
307
295
282
290
294
289
278
286
294
290
279
287
295
294
280
286
295
295
280
286
294
295
279
285
294
299
285
286
292
296
283
282
292
286
296
311
266
296
287
283
293
299
292
284
296
303
295
288
298
307
302
292
303
306
297
280
288
294
292
279
287
294
293
279
286
294
294
280
284
294
294
280
284
294
299
285
286
294
295
282
282
292
290
287
315
281
288
289
282
294
301
292
284
295
303
297
288
298
306
302
291
302
306
298
280
288
294
292
278
286
294
293
278
283
292
292
278
282
290
293
279
280
292
294
284
284
293
295
283
280
291
296
275
294
319
271
288
282
292
299
293
282
294
302
296
287
298
305
302
291
301
308
301
283
287
293
292
278
285
294
294
279
283
293
295
281
284
292
295
282
282
292
296
283
281
291
301
288
284
293
297
288
281
285
296
329
267
284
301
292
282
293
300
296
285
294
303
300
289
298
306
307
294
299
302
297
280
285
293
295
279
284
294
295
282
283
293
295
283
282
292
297
285
281
292
298
286
283
294
299
288
280
291
297
290
272
289
339
280
274
293
298
295
284
292
300
298
286
294
304
304
290
297
307
307
294
291
297
295
280
282
293
296
281
282
292
296
283
281
292
296
285
283
292
297
287
283
295
298
288
280
290
296
289
273
294
331
272
275
293
299
296
284
292
300
300
288
296
304
303
291
298
308
308
292
290
296
295
281
283
293
296
283
283
292
297
285
282
294
298
287
283
292
301
293
285
294
298
290
282
293
292
294
317
277
290
297
284
294
301
298
286
294
303
303
289
297
306
307
294
299
305
301
283
284
294
296
281
283
294
296
283
281
292
296
284
282
291
297
287
280
292
298
290
285
294
300
290
282
291
297
287
275
328
298
280
285
292
298
297
283
292
301
300
287
294
303
304
291
296
306
306
287
285
292
294
280
281
292
295
282
281
291
295
284
279
290
296
285
278
289
295
288
280
290
295
289
282
292
298
290
278
289
294
288
267
313
314
271
283
288
297
297
282
290
298
300
287
290
301
304
291
293
304
307
291
285
293
296
284
281
292
297
285
281
292
297
288
280
291
297
289
281
289
295
291
280
290
297
292
281
292
299
296
280
288
296
295
278
277
318
314
257
290
296
299
285
289
299
301
289
290
302
306
293
293
302
309
298
291
297
298
286
281
291
297
286
279
289
296
287
279
288
295
290
280
288
294
291
278
286
295
293
283
289
296
293
279
285
294
290
276
313
293
278
285
285
295
299
286
287
298
302
290
289
301
306
295
293
304
308
294
284
293
296
288
280
290
296
288
278
289
295
291
280
288
295
290
280
288
295
293
280
286
296
295
281
289
299
299
281
286
294
296
282
274
305
327
260
286
296
300
288
286
298
302
292
289
299
304
295
291
301
308
301
290
294
296
288
280
288
294
289
279
287
294
290
279
287
294
292
279
286
293
293
280
285
293
293
282
285
294
295
283
288
296
297
286
285
293
297
277
281
333
282
280
286
295
300
291
286
297
302
295
288
299
304
300
291
300
307
303
288
292
295
291
280
287
294
293
279
286
293
293
279
285
292
293
281
284
292
294
283
283
292
297
285
283
294
296
288
287
295
297
287
283
292
296
278
291
324
269
291
285
294
301
296
287
296
303
300
289
298
305
303
292
299
306
305
288
290
296
295
281
287
294
295
281
284
293
294
284
283
292
295
284
282
292
297
286
283
295
300
291
283
292
296
289
282
284
304
323
259
286
299
294
284
293
301
297
287
296
303
301
291
298
307
307
295
297
300
297
283
286
294
296
282
285
293
297
284
285
294
297
285
283
292
297
286
282
296
297
291
281
293
296
286
279
281
317
302
257
289
297
292
282
291
298
295
285
292
301
300
289
296
302
305
292
292
294
291
279
282
292
292
284
283
291
294
282
284
290
293
284
281
291
294
287
285
295
298
287
282
290
295
289
273
290
324
274
272
293
297
294
285
294
299
297
290
294
302
300
292
298
305
307
294
293
296
294
283
284
292
295
284
285
292
294
285
283
292
295
286
285
294
300
293
287
292
296
288
282
290
286
297
311
262
294
294
284
293
298
296
288
296
302
301
291
298
307
307
297
303
306
301
285
287
294
296
285
287
295
297
285
285
294
297
286
286
293
298
289
290
299
296
286
283
290
296
286
270
309
317
257
286
295
300
296
290
298
301
302
292
299
306
306
296
302
310
309
292
293
296
295
284
287
295
296
284
286
295
295
285
283
291
293
286
285
290
300
289
287
295
293
286
281
290
294
275
286
322
265
284
284
290
297
295
285
292
302
297
291
297
305
303
295
300
309
304
289
286
291
292
282
285
293
294
284
283
290
292
282
284
290
292
285
283
292
293
286
284
296
301
288
282
288
293
288
281
271
312
303
249
291
297
292
288
291
299
296
286
293
301
299
287
298
301
305
292
294
294
292
277
284
289
292
278
282
288
294
281
282
288
292
283
283
290
295
286
281
289
293
286
283
292
301
292
282
290
294
288
281
281
283
332
271
276
299
295
287
293
300
298
288
295
303
301
291
297
305
306
294
299
301
298
282
285
291
294
283
284
292
295
284
281
291
295
284
281
291
296
286
282
291
296
289
283
291
299
294
286
291
295
290
280
287
281
302
309
255
295
296
285
292
299
298
287
292
299
302
291
293
303
307
293
293
305
301
287
285
293
296
284
284
293
296
285
283
292
296
286
283
291
297
291
286
296
299
290
283
289
296
293
274
299
326
271
276
292
297
298
288
293
301
299
290
293
305
304
294
296
305
308
290
290
296
296
284
285
294
297
286
284
293
298
287
282
292
297
289
286
292
301
288
281
289
292
288
275
288
327
276
272
290
294
292
283
289
297
295
284
291
299
301
288
293
302
303
290
289
293
295
282
283
292
293
285
283
292
295
283
281
291
295
288
284
297
295
286
281
290
294
286
272
308
315
269
285
291
297
294
281
294
299
299
286
295
300
301
289
294
305
303
288
288
295
294
282
285
293
295
283
283
292
296
282
283
292
297
290
287
293
295
285
281
290
292
279
307
302
278
291
281
291
298
292
283
292
299
296
285
294
300
298
289
296
301
296
281
285
291
292
279
282
291
293
280
283
291
293
282
282
293
298
288
285
290
293
281
281
290
283
289
316
265
294
288
283
292
298
291
284
293
300
295
287
296
302
300
290
299
301
296
279
287
293
292
280
286
294
293
280
284
293
293
282
285
295
300
288
286
291
296
283
283
288
290
317
286
277
301
290
285
296
301
293
286
297
304
297
290
300
306
301
293
300
302
294
281
289
295
292
281
288
294
291
282
288
294
293
283
289
301
299
283
286
294
294
284
278
299
328
262
279
297
299
288
288
296
301
292
288
299
305
296
290
301
306
300
289
294
298
291
282
291
296
292
280
289
295
292
280
289
297
297
286
288
293
293
282
286
292
291
302
297
273
297
283
285
295
298
285
287
296
300
289
288
298
302
293
288
299
300
289
283
291
296
290
282
291
296
290
281
291
297
296
287
290
295
292
279
287
293
292
297
299
277
294
283
288
296
297
284
289
298
300
289
291
299
302
291
291
300
298
286
283
291
295
285
282
292
297
286
281
291
296
289
286
294
296
287
279
288
294
288
278
308
304
273
281
289
295
293
282
288
298
296
285
291
299
300
288
293
302
300
286
286
292
295
283
284
293
295
284
283
291
296
284
282
293
301
289
282
289
294
286
279
285
289
311
291
270
297
291
282
291
296
294
284
293
300
298
286
295
301
301
290
293
298
294
280
284
293
293
281
283
292
294
281
283
291
294
282
282
292
295
284
280
291
296
289
285
291
294
285
278
287
288
276
310
299
280
292
280
289
297
294
283
292
299
297
286
294
302
302
292
299
304
300
283
285
293
293
280
283
292
294
282
283
291
293
283
282
292
295
284
281
291
295
285
281
291
297
289
285
297
302
289
281
290
296
290
272
284
336
279
273
293
296
295
284
292
298
297
286
293
301
302
290
297
306
308
295
292
298
296
283
285
294
296
284
283
294
296
284
283
292
295
285
281
290
296
286
281
289
296
288
281
291
300
295
283
290
294
290
280
285
285
320
284
268
300
295
284
290
298
297
285
292
300
301
289
294
304
305
294
295
300
298
284
284
292
295
285
283
292
296
284
281
290
295
286
282
291
296
288
281
291
297
293
284
291
294
290
278
288
293
281
300
304
266
294
282
289
296
296
285
291
300
300
289
293
302
304
293
297
304
304
286
284
292
295
283
282
292
296
284
282
290
295
285
282
290
295
286
281
291
296
290
284
296
302
294
281
290
296
292
279
278
321
305
257
293
297
297
284
291
300
300
289
294
303
304
292
297
305
308
295
291
296
295
283
283
292
296
284
283
294
298
287
282
292
297
287
283
292
297
289
281
292
298
294
286
291
296
291
280
288
287
285
317
282
281
296
283
291
298
298
287
292
301
302
291
294
304
306
294
298
304
302
285
284
292
295
285
284
293
296
285
282
292
296
287
280
290
296
289
282
293
301
294
282
289
295
289
279
285
289
312
292
266
298
296
284
291
300
299
288
292
301
302
289
295
303
305
293
294
298
299
282
284
292
295
284
283
293
296
285
283
292
297
288
284
295
300
291
283
290
294
286
281
285
309
310
261
288
297
293
284
292
298
296
284
293
300
299
288
294
301
303
289
291
295
295
281
284
292
294
282
284
292
295
282
282
292
296
288
287
293
295
284
281
289
294
281
298
307
275
287
282
290
296
291
283
293
296
298
286
295
302
298
289
298
303
293
269
299
296
293
278
284
286
304
282
286
290
297
280
290
287
303
283
282
290
285
286
277
306
311
262
283
287
295
288
282
290
297
290
284
293
303
281
298
296
303
293
283
288
295
291
281
288
290
289
280
291
292
288
281
287
297
285
291
283
290
291
278
280
293
320
269
275
291
294
282
284
292
294
287
282
296
299
289
284
302
299
293
283
291
293
286
279
290
297
286
281
285
296
290
282
290
299
296
280
288
292
288
280
277
306
314
262
284
298
293
281
289
297
294
284
289
296
300
288
291
301
306
288
287
293
294
284
281
290
294
285
281
290
295
288
280
292
299
292
281
288
294
287
279
284
291
321
278
279
296
291
281
288
296
294
283
291
299
299
287
293
302
304
292
289
296
295
282
284
293
294
283
283
294
293
284
283
292
300
289
282
292
294
287
282
291
288
304
303
271
298
291
284
292
300
293
287
293
302
298
287
297
304
303
292
298
298
297
283
287
295
294
283
285
296
296
284
289
298
300
284
285
293
294
285
280
293
320
294
269
294
298
289
284
297
298
293
287
296
303
295
289
300
306
298
288
292
297
291
280
289
295
292
281
289
295
291
282
290
298
298
282
285
295
291
280
282
287
322
289
268
297
295
283
284
294
297
287
287
297
302
293
291
302
306
297
288
293
296
286
280
288
294
287
280
288
293
288
279
290
295
296
283
286
292
288
277
284
283
292
319
266
293
295
281
287
296
294
286
288
298
299
291
289
305
303
296
295
298
295
284
283
288
293
285
282
292
293
286
280
290
295
287
283
296
299
288
280
288
292
289
274
280
326
291
260
290
293
293
284
288
299
296
286
293
301
301
289
296
304
305
289
289
294
294
282
285
294
294
285
283
293
295
285
282
291
298
286
284
295
301
288
281
291
296
288
279
279
316
312
256
293
297
292
287
291
299
298
286
296
303
301
289
295
304
304
289
293
296
295
283
286
294
293
286
285
291
295
283
285
291
293
283
283
290
295
286
287
295
300
286
282
290
295
287
271
296
325
266
280
292
296
292
284
293
297
296
286
295
301
298
289
297
305
302
288
290
293
293
279
287
293
295
280
283
292
295
282
285
292
293
282
282
293
296
284
285
294
300
290
283
292
296
286
281
289
289
313
288
275
298
289
283
292
299
293
284
294
301
295
287
294
303
300
288
294
300
294
282
285
294
293
281
286
294
295
280
283
291
294
281
283
292
295
285
286
297
300
285
282
292
294
284
274
288
326
277
272
294
296
290
284
294
299
292
285
295
303
299
288
297
303
301
286
292
295
292
281
287
295
293
280
287
294
293
281
286
294
294
283
286
292
295
285
287
300
300
288
283
293
294
286
280
283
317
296
266
295
298
290
284
294
299
292
285
296
302
295
287
297
304
300
288
294
299
293
281
290
295
293
283
286
296
295
279
288
296
295
280
287
295
295
283
282
294
296
281
285
295
300
287
281
292
295
283
278
285
318
292
267
295
296
287
284
294
298
291
286
294
300
297
286
295
302
299
285
292
297
292
280
287
294
292
280
286
293
292
281
286
294
294
281
285
295
296
283
285
294
295
284
284
294
298
286
288
296
297
285
281
292
295
277
294
308
274
289
283
291
299
290
283
294
298
295
286
295
302
297
289
297
304
299
285
290
296
293
281
286
297
294
281
287
294
293
284
286
295
296
284
284
296
297
286
284
295
299
291
290
295
296
286
283
291
293
282
307
291
285
292
284
295
300
292
284
294
300
295
287
297
302
298
289
298
302
297
282
288
296
294
282
287
295
294
281
286
294
295
282
285
296
295
283
286
293
296
284
285
295
301
290
285
292
296
285
281
284
294
319
266
286
298
289
283
293
298
294
285
294
302
297
289
298
304
302
292
297
300
294
282
289
295
293
282
286
294
293
282
286
293
295
283
285
294
295
283
285
293
295
286
286
298
300
288
282
291
295
286
274
290
329
270
275
294
299
290
284
293
300
294
288
297
302
299
289
297
304
300
288
292
295
291
281
288
296
292
281
287
295
293
281
285
293
294
280
285
292
295
284
284
297
299
284
282
290
294
283
274
290
331
268
275
294
297
289
284
294
300
293
287
297
302
296
290
298
305
300
288
291
294
291
280
287
293
291
281
286
294
291
279
286
292
293
281
284
294
297
285
287
291
294
281
281
288
282
304
299
265
298
285
285
295
300
289
286
297
302
295
289
301
306
300
293
300
299
291
280
289
295
289
281
288
295
294
281
288
295
292
281
288
295
295
281
292
301
295
282
287
292
294
276
280
325
291
267
288
295
297
289
286
297
301
291
290
300
303
296
292
304
306
295
286
292
296
287
281
291
296
289
283
289
295
292
281
290
296
294
287
291
295
291
279
287
293
284
288
319
268
289
283
287
295
296
285
290
299
300
290
291
301
304
293
294
300
301
285
282
292
294
286
281
290
294
285
280
290
294
288
279
290
296
294
286
291
294
289
278
288
291
281
300
308
271
294
282
289
296
295
284
292
297
298
287
293
302
304
293
296
301
298
285
283
290
294
283
283
292
295
283
281
292
295
284
281
290
296
285
281
291
296
292
285
289
295
287
278
287
289
278
311
297
278
294
282
289
298
295
285
292
300
298
287
295
303
302
290
301
302
300
283
287
293
293
283
284
292
294
283
283
291
293
282
