485
487
488
490
491
493
494
495
495
494
493
491
489
489
488
489
489
490
496
495
491
494
500
497
495
499
503
497
496
501
506
500
501
508
509
504
506
513
512
508
511
517
513
508
511
515
508
505
508
511
504
504
509
510
503
503
509
508
502
505
511
507
503
507
512
506
504
508
513
506
505
510
513
507
507
513
513
507
510
517
515
509
512
518
514
510
514
519
514
514
519
521
514
514
518
518
510
510
515
512
507
510
517
513
508
511
516
510
509
511
516
515
531
576
630
664
665
623
559
518
516
521
513
503
502
505
498
494
497
500
495
494
499
500
494
495
501
501
495
498
505
502
498
501
507
503
500
504
509
503
502
507
510
504
504
510
512
506
507
513
509
502
502
507
502
497
499
503
496
494
498
502
494
494
499
502
495
496
503
503
498
499
504
499
496
499
504
499
498
502
506
501
500
505
506
500
501
507
507
503
505
512
509
505
510
516
510
508
512
516
508
507
511
512
504
503
508
508
501
502
508
506
501
504
509
501
499
509
534
572
626
671
673
619
554
525
520
512
507
507
500
493
494
499
495
491
494
499
493
491
495
499
494
493
498
501
495
498
504
503
498
500
506
503
500
503
509
505
503
507
512
507
507
514
516
509
508
513
511
504
503
507
503
498
501
506
501
498
500
505
499
497
501
504
498
498
503
504
498
499
504
502
498
502
507
502
498
501
506
500
499
503
507
501
501
507
509
502
503
509
510
506
508
513
509
505
509
514
508
505
508
511
505
504
508
509
502
502
507
507
502
501
505
503
509
543
603
652
673
655
601
540
521
523
521
506
500
501
500
492
493
500
498
493
496
502
498
494
497
503
496
495
500
504
498
498
503
505
499
501
508
506
501
505
512
508
504
507
513
507
506
510
513
504
502
505
506
499
500
505
504
498
499
503
500
496
499
504
498
495
499
504
498
497
501
503
497
498
506
507
501
503
510
508
503
505
511
506
502
506
511
504
503
509
513
508
509
515
516
510
513
519
516
511
513
518
513
508
510
515
508
507
511
515
508
508
514
517
511
512
516
512
506
515
546
593
645
680
675
616
553
530
531
522
514
512
510
500
499
504
502
496
497
504
501
496
499
505
501
498
503
508
502
501
506
510
503
504
510
512
505
507
513
512
508
511
518
514
512
516
521
514
512
515
517
508
508
512
512
504
504
509
508
503
507
513
509
505
507
512
506
504
507
510
504
502
505
506
499
500
506
506
501
504
510
507
503
505
510
506
503
508
512
505
504
508
510
504
505
511
511
506
508
514
513
508
510
514
509
505
507
511
504
501
504
507
500
499
504
505
498
500
506
505
498
501
510
516
539
592
649
668
643
587
534
508
507
511
508
496
493
496
494
488
490
496
493
489
492
497
492
490
494
499
494
494
498
501
495
495
501
502
497
499
505
504
500
503
508
504
501
505
510
504
503
506
506
498
496
500
500
493
494
499
498
493
494
499
495
491
494
498
492
490
494
497
490
490
494
496
490
491
496
496
491
493
499
495
491
494
498
494
491
494
498
492
491
495
497
491
492
498
499
492
493
500
498
495
499
505
499
495
499
504
498
496
498
499
492
492
498
498
492
493
498
497
492
495
499
495
496
511
548
596
642
661
634
565
517
509
510
501
495
496
492
485
487
492
488
483
486
492
488
486
490
494
489
490
494
496
491
492
498
498
492
494
501
498
494
497
502
499
496
500
505
499
498
503
505
498
498
502
501
494
494
498
494
489
491
495
489
485
488
493
486
483
487
490
485
485
491
492
486
488
494
494
488
491
497
494
490
493
499
495
494
499
503
497
498
503
506
500
502
508
508
503
505
511
508
504
508
515
511
509
513
518
514
514
517
520
514
514
519
518
511
510
515
511
507
509
515
511
508
511
517
511
507
513
521
528
565
624
667
667
628
571
528
515
518
520
509
501
501
504
498
496
501
503
497
498
503
506
500
502
509
509
505
509
516
513
509
513
519
514
512
516
520
515
515
520
523
517
518
525
525
520
522
526
521
513
513
517
511
506
508
512
505
503
508
510
503
503
507
508
501
502
508
506
501
503
509
505
502
505
509
503
501
505
508
501
500
506
507
501
503
509
508
503
505
511
508
504
507
513
508
506
509
514
509
508
513
515
509
511
516
515
508
509
515
512
505
507
512
507
504
507
513
506
504
509
512
506
505
509
512
515
540
591
640
660
644
595
536
512
515
518
507
501
502
503
495
495
501
502
495
496
501
500
495
498
505
502
498
501
507
502
500
505
509
503
503
508
510
503
504
510
510
504
506
513
511
508
512
516
509
505
507
509
502
500
503
503
495
495
500
500
494
495
500
497
492
495
501
496
493
497
501
495
494
498
501
494
495
500
501
494
495
501
499
494
496
502
499
495
498
503
498
495
499
503
497
496
501
504
498
500
506
505
500
504
510
507
503
507
512
506
503
506
510
503
501
506
509
502
503
508
509
503
506
511
508
506
519
553
598
644
667
645
580
528
516
518
510
504
504
503
496
496
501
499
493
496
501
497
494
497
502
497
496
501
505
500
500
507
509
502
504
511
510
505
508
515
511
507
512
519
514
512
516
520
512
510
512
513
505
503
507
506
500
502
508
505
499
502
508
504
501
504
508
502
501
505
509
502
502
508
510
504
505
510
508
503
505
511
507
503
506
510
504
501
506
511
504
505
510
511
505
505
511
510
505
506
513
510
506
509
515
511
510
514
517
509
508
511
512
504
504
509
508
502
503
509
506
501
504
510
505
502
505
512
515
538
587
634
644
625
578
526
498
501
510
507
499
498
503
498
493
496
501
496
495
499
502
496
496
501
503
497
500
507
506
501
505
513
509
505
508
514
507
505
510
515
509
509
515
517
510
510
515
512
503
502
507
501
495
496
502
496
492
495
499
493
492
497
500
493
493
497
497
491
493
498
496
490
492
497
493
491
495
500
495
496
500
504
497
497
502
503
496
497
503
502
497
499
505
501
498
502
509
504
501
506
512
506
506
511
513
507
506
512
511
504
504
509
505
499
501
506
501
497
502
506
500
500
509
521
537
580
633
654
629
581
538
517
513
516
518
508
501
503
507
500
499
503
506
500
500
506
508
503
506
512
510
504
505
512
508
504
507
511
507
507
512
518
513
514
521
523
517
518
525
525
519
521
525
519
513
514
518
511
507
510
514
508
507
512
515
508
509
516
516
510
512
518
515
511
514
520
515
512
516
521
515
514
519
522
515
515
521
522
516
517
522
520
515
517
522
516
513
517
522
516
514
517
522
516
515
520
522
514
514
518
516
508
509
514
508
503
505
509
503
501
505
510
503
500
505
511
517
550
608
649
650
620
571
526
510
512
514
501
494
494
497
490
489
493
496
489
489
495
496
490
492
499
497
493
497
504
500
496
500
506
501
500
505
510
504
505
511
514
508
509
516
516
511
513
517
510
503
504
507
500
496
498
501
494
493
497
500
493
493
498
498
493
495
500
497
493
495
501
495
492
495
500
493
492
496
499
492
492
499
500
494
495
501
499
494
497
504
499
495
499
504
498
497
502
505
499
500
507
508
501
502
508
505
499
501
507
502
498
501
506
498
496
500
504
498
497
502
502
495
498
514
545
594
647
673
646
584
536
525
517
510
506
505
495
493
496
498
491
492
498
497
491
494
501
498
493
496
502
498
495
500
505
499
498
503
506
500
501
507
508
502
504
511
511
506
508
515
511
506
506
510
502
498
501
504
496
494
498
499
493
493
499
499
493
495
501
498
493
497
502
497
494
498
501
495
495
499
501
493
494
500
499
494
496
502
499
494
497
503
498
495
499
504
498
497
502
505
500
501
506
508
502
503
508
506
501
503
509
503
498
500
505
498
496
500
503
496
496
502
504
496
494
499
500
506
543
605
649
658
631
575
523
508
510
510
497
491
493
493
485
486
492
492
486
488
494
491
486
490
497
492
490
494
500
495
494
500
504
498
499
505
505
500
503
510
508
503
506
513
509
505
509
513
505
501
504
506
498
497
502
503
495
496
503
502
496
497
503
499
496
500
506
500
498
503
508
503
503
508
510
504
506
513
513
508
510
517
514
510
513
520
515
512
516
520
514
513
518
522
516
516
521
522
518
520
526
524
520
524
530
525
522
525
530
524
523
527
530
523
522
528
530
524
524
529
530
531
555
606
653
677
662
608
543
519
523
528
517
512
514
515
507
507
513
512
506
509
515
511
507
510
515
509
507
511
516
510
509
514
516
509
510
516
516
510
512
518
515
510
513
518
513
510
513
517
508
506
509
511
503
502
507
507
499
499
504
502
497
498
503
499
496
499
503
497
495
499
502
495
494
499
501
494
494
501
500
494
496
502
499
495
499
504
499
497
501
506
500
501
506
508
501
504
512
511
504
506
512
508
501
503
507
501
498
502
505
499
499
503
507
500
501
507
507
504
515
542
582
625
653
642
584
525
507
513
509
505
505
505
496
495
499
500
493
494
500
498
492
496
503
499
496
500
505
500
498
503
508
502
502
509
513
507
508
515
515
509
510
516
513
508
510
515
507
501
502
505
496
493
497
499
491
491
498
498
493
495
500
497
493
497
503
498
494
498
501
494
493
498
501
494
494
499
500
493
494
500
499
494
497
503
499
497
501
506
501
500
504
509
503
505
509
511
504
504
509
507
501
502
507
503
498
500
506
500
497
501
506
500
498
502
508
510
537
592
643
660
641
590
534
511
514
517
506
498
497
499
491
489
494
497
490
490
497
498
493
496
503
501
496
499
507
504
501
505
511
506
505
510
515
509
510
516
518
511
513
518
517
512
515
521
516
510
512
516
509
506
509
512
504
503
508
510
503
503
508
507
502
504
510
507
502
505
511
506
503
507
513
506
505
508
511
504
505
511
511
505
506
512
510
505
508
514
509
507
512
518
511
508
511
516
508
507
512
511
502
503
508
506
500
501
507
502
498
502
508
499
494
500
515
539
593
648
669
637
579
534
517
509
508
508
498
489
490
495
489
486
490
494
487
485
491
494
487
489
495
496
490
493
500
498
493
496
503
498
496
500
507
502
501
505
509
503
504
510
510
504
504
509
505
497
498
503
498
493
496
501
494
492
496
498
491
490
495
497
489
489
495
494
489
491
497
494
490
494
500
495
493
497
501
494
495
500
502
496
497
503
503
498
500
506
504
501
507
514
508
504
506
511
504
502
506
507
500
500
506
506
500
502
508
507
502
505
510
503
500
511
538
576
629
668
662
602
540
517
516
509
505
506
501
494
495
500
496
491
494
499
494
492
497
501
496
496
500
502
496
498
506
507
501
504
512
509
505
509
516
510
508
512
517
511
511
516
519
510
509
513
511
502
502
506
503
497
499
505
499
495
499
504
498
497
501
505
498
498
502
503
497
498
505
504
497
499
505
501
498
502
507
501
500
505
508
501
501
507
510
504
505
511
512
508
511
517
513
509
512
518
512
508
511
515
509
5‡ 503
506
507
508
510
511    Ú ˚N‡jﬂ®†èÌÇD⁄  ˆ 555 5  4   501
501
500
499
499
499
500
501
502
504
507
508
508
508
507
505
503
501
501
507
507
502
505
511
509
504
508
515
511
506
509
514
507
504
507
509
502
501
506
507
500
501
507
505
500
502
508
503
495
499
513
534
582
640
674
657
606
552
528
517
515
514
507
498
497
502
499
494
495
500
495
492
496
502
497
496
501
504
499
499
506
506
501
503
509
506
501
505
512
507
505
509
515
509
508
514
518
512
512
517
516
506
506
510
507
500
501
507
502
498
501
507
501
499
503
507
500
500
506
508
502
503
509
508
503
505
511
508
504
507
513
508
506
509
514
507
505
510
513
505
506
511
511
504
505
512
509
504
507
513
506
502
507
513
508
508
513
517
511
513
519
520
513
513
519
517
511
513
517
512
507
510
516
510
509
513
517
509
508
512
515
512
524
562
614
652
669
646
582
527
515
521
514
506
505
506
498
497
500
502
496
497
502
502
496
499
505
503
500
502
508
503
500
504
509
503
502
507
510
504
505
512
514
508
510
518
517
512
515
520
513
506
508
510
501
497
499
502
495
494
498
499
493
494
500
497
491
494
501
497
493
495
501
494
492
497
501
494
494
499
501
494
495
502
503
497
497
502
498
493
496
501
495
493
496
501
495
493
497
500
494
495
501
502
495
498
504
502
496
499
506
503
500
502
505
498
497
501
503
494
493
497
498
492
494
501
501
495
497
503
497
490
495
509
527
571
624
651
623
566
518
501
493
493
494
488
478
478
483
480
475
479
485
480
479
483
489
483
484
490
493
488
490
497
499
495
498
506
506
503
509
517
513
511
516
522
517
517
522
526
520
519
523
522
514
513
517
514
507
508
514
511
508
512
519
514
514
518
522
517
517
522
525
519
521
528
527
522
524
530
528
524
528
535
530
527
530
533
527
527
531
534
528
529
534
534
529
531
537
534
530
533
540
536
533
537
542
536
536
540
545
540
540
545
544
539
540
546
543
537
538
544
539
535
538
544
538
535
538
542
535
533
539
544
551
583
638
678
681
647
596
553
494
495
494
494
494
494
495
496
498
499
501
502
502
501
500
498
496
495
496
501
501
495
496
502
499
495
498
503
498
496
499
504
498
498
503
506
499
504
498
500
499
500
501
502
502
503
505
506
506
506
505
503
502
501
501
501
504
508
504
504
507
510
505
505
510
513
508
507
511
511
507
507
511
508
503
505
508
504
502
505
507
503
503
507
509
502
504
514
531
568
626
673
676
630
567
531
518
514
509
505
495
491
492
494
489
489
492
493
488
489
494
494
492
494
498
496
493
496
500
496
494
497
500
496
496
501
503
499
500
505
505
502
505
509
507
504
505
508
502
498
500
503
498
496
498
500
496
496
499
499
494
496
501
500
497
499
503
499
497
500
504
500
499
501
503
498
498
503
504
500
501
505
503
500
503
507
504
502
504
508
505
504
507
510
505
505
511
514
510
510
514
513
508
509
513
509
505
508
512
509
507
509
511
506
506
510
512
504
505
514
529
564
621
673
682
641
578
537
523
519
516
511
501
498
498
499
494
493
497
498
494
495
500
499
496
498
503
500
498
502
507
503
502
506
509
504
505
510
511
507
508
513
512
509
512
517
516
513
515
517
511
508
508
509
503
502
504
505
499
501
505
504
499
501
505
504
501
504
507
504
502
505
508
503
502
505
507
502
503
507
508
503
504
509
507
502
504
507
504
502
505
508
504
504
507
509
503
504
510
511
506
506
511
510
506
507
510
506
502
503
507
503
501
504
508
503
503
507
508
502
506
518
535
570
620
658
649
597
540
515
509
509
509
507
498
497
500
500
495
495
499
500
496
498
502
500
498
501
505
502
500
503
506
502
502
506
510
505
506
510
511
506
508
514
513
509
510
515
513
509
510
511
505
501
503
504
498
496
500
500
495
496
500
500
496
497
501
498
495
497
500
496
494
497
500
496
496
500
503
498
498
501
501
497
499
503
501
497
500
503
500
498
501
505
502
502
505
508
505
507
512
513
508
508
512
509
504
505
508
504
500
502
505
501
500
503
505
500
500
504
504
498
502
516
541
584
634
662
641
583
531
515
511
509
507
505
497
494
496
497
491
490
494
494
489
491
495
494
492
495
499
496
495
498
502
497
497
501
504
500
500
504
506
502
503
507
506
502
505
509
505
503
504
505
499
497
498
499
493
494
497
498
493
493
496
495
491
493
499
496
493
496
500
496
495
498
500
496
495
498
500
496
496
501
501
496
499
504
501
497
499
503
499
498
502
506
502
501
505
508
503
504
508
509
506
508
512
510
506
509
513
508
504
505
507
502
501
505
507
502
501
505
507
503
502
505
507
515
548
605
651
668
645
589
533
514
516
515
504
498
498
497
490
490
494
493
489
490
494
492
489
492
497
494
492
495
499
494
494
498
501
497
498
503
503
499
501
505
503
500
503
508
505
504
507
510
505
502
504
504
498
496
498
498
493
494
498
497
493
494
498
496
494
496
499
495
494
496
499
495
495
499
500
495
495
499
498
494
495
499
496
493
495
500
496
495
498
501
496
497
501
502
497
499
505
505
502
504
509
508
506
508
513
508
505
508
510
505
504
506
507
502
501
506
507
503
504
507
505
500
500
504
504
516
560
620
658
665
630
571
526
517
518
514
502
497
499
496
491
491
495
493
490
493
497
494
493
496
499
494
495
499
501
497
498
503
503
499
502
507
506
504
507
511
508
508
511
516
512
512
516
517
511
509
510
509
502
502
505
503
498
500
503
500
497
500
504
500
499
502
504
500
500
503
505
500
501
505
503
499
501
505
502
499
501
504
501
500
502
506
501
501
503
504
499
498
502
503
499
501
506
504
502
504
510
508
506
508
511
507
506
508
509
503
502
507
507
502
503
507
506
502
505
509
505
501
506
515
526
560
613
655
652
610
553
517
506
510
513
507
498
498
500
497
493
495
498
494
494
497
500
497
498
503
505
501
502
507
506
503
505
509
507
505
508
513
511
509
513
517
512
511
515
518
513
513
515
512
506
505
507
504
499
500
504
499
496
498
501
497
496
499
501
496
496
500
501
497
498
502
501
498
500
505
503
499
501
505
501
499
503
506
501
501
504
505
500
502
506
505
501
504
508
507
504
505
510
507
505
507
510
505
503
505
506
501
501
504
504
500
501
505
503
499
502
506
502
498
501
509
516
543
592
638
647
620
568
523
505
507
510
503
495
494
496
491
488
490
494
491
490
494
497
493
493
497
499
495
496
501
502
499
500
506
504
501
504
509
506
505
508
511
507
507
512
513
507
507
510
508
502
502
504
501
496
497
501
497
495
497
501
496
495
497
498
493
493
497
498
494
495
500
499
495
497
501
497
495
497
501
497
496
499
501
496
495
499
500
496
497
501
500
496
499
505
504
501
504
508
506
505
508
511
506
506
508
509
502
502
505
504
500
502
506
504
500
503
508
504
501
502
508
514
541
595
647
665
644
590
538
515
515
516
507
498
497
499
494
490
493
496
491
490
494
497
493
494
498
500
496
498
503
502
499
501
506
504
501
504
509
504
503
506
509
505
505
510
512
508
509
512
510
505
505
508
504
499
499
502
497
495
498
501
497
496
499
501
496
496
501
501
496
497
501
500
497
499
504
502
500
503
506
502
500
504
507
501
502
506
508
503
504
508
506
502
504
509
507
505
507
510
507
508
514
517
512
511
515
516
511
511
514
512
507
508
512
509
504
506
511
507
505
507
508
504
510
530
571
620
662
669
625
557
521
519
517
508
503
503
497
494
495
498
493
492
495
497
492
493
497
499
494
496
500
500
497
499
504
502
501
504
508
504
504
508
511
507
509
512
514
509
511
515
514
509
509
512
508
504
504
507
501
498
500
503
498
498
501
502
497
498
502
501
496
498
503
501
497
499
504
501
499
502
506
503
502
505
508
503
503
507
507
502
504
508
507
503
503
507
505
502
506
510
506
505
509
513
508
507
510
511
506
507
511
509
504
505
508
506
501
503
508
504
502
505
507
502
506
518
542
579
626
652
631
572
521
506
506
504
503
502
495
492
493
497
493
492
495
497
493
493
497
499
495
497
502
501
498
501
507
504
502
505
510
506
505
509
513
509
509
513
515
511
512
516
515
509
509
512
508
503
503
506
501
499
501
503
497
496
499
499
494
495
500
500
496
497
501
499
496
498
501
497
495
497
501
497
496
499
501
497
498
502
502
498
499
503
501
497
499
504
501
499
503
507
502
501
506
510
504
503
507
508
503
503
505
504
499
500
505
503
500
502
505
501
500
503
506
500
503
515
537
576
626
659
647
592
537
517
512
508
505
503
496
492
493
496
492
491
494
496
491
491
495
495
492
494
499
497
493
495
500
497
495
499
503
499
498
501
505
500
501
505
506
501
502
507
506
502
503
505
500
496
497
499
495
493
495
498
491
491
495
496
492
493
497
497
492
493
498
497
494
497
501
497
496
499
503
499
499
503
504
499
500
503
504
499
500
504
502
498
500
505
503
501
505
509
504
505
509
512
507
507
510
510
504
505
508
506
501
502
506
504
500
502
506
502
502
504
505
502
509
535
581
630
665
662
611
547
521
522
517
509
504
503
497
494
496
498
493
492
494
495
491
491
495
496
493
494
499
498
496
498
502
499
498
501
504
500
500
505
508
505
505
509
511
507
509
513
511
506
506
509
505
501
501
503
498
496
498
500
495
495
499
500
495
496
501
501
496
499
503
500
497
501
504
501
499
502
504
499
499
503
506
502
502
505
505
501
504
508
506
503
505
510
507
505
507
510
507
507
510
511
507
507
510
510
505
505
508
506
503
504
509
506
504
506
509
505
503
508
515
525
557
609
647
646
612
558
516
503
507
511
504
496
496
499
494
494
496
500
496
496
499
501
497
499
504
505
501
502
508
507
504
507
512
510
509
513
518
514
514
519
521
516
517
522
523
518
519
521
517
509
508
509
504
499
500
503
498
497
500
503
497
495
498
499
494
495
499
497
493
494
498
496
493
496
499
494
493
496
499
494
493
496
498
493
494
498
497
492
493
499
498
496
498
503
501
500
502
504
499
498
501
502
497
497
500
501
496
497
501
499
496
498
502
500
496
498
503
505
518
554
604
636
636
601
548
508
503
509
505
495
492
494
490
486
488
491
487
486
488
491
487
488
492
494
488
489
495
496
492
493
499
497
495
497
502
499
498
501
504
499
499
503
506
502
503
506
506
500
499
500
496
491
491
494
489
486
488
492
488
488
492
495
490
490
494
495
489
490
495
494
491
493
497
495
494
496
500
496
494
498
501
496
496
499
499
495
496
502
501
498
500
506
505
503
505
509
505
504
506
509
503
501
504
506
501
502
506
505
501
502
506
504
500
500
506
509
528
575
630
652
639
595
543
513
511
515
511
501
498
500
498
494
496
500
497
495
497
501
497
495
498
502
497
497
502
503
499
502
509
510
505
508
515
513
509
514
519
514
511
516
523
517
515
519
520
511
509
513
510
502
502
507
503
497
499
505
500
496
500
505
500
499
504
507
501
500
506
507
500
501
507
505
500
503
508
504
501
503
509
503
502
506
509
502
502
506
509
503
504
510
510
506
509
515
511
507
509
514
508
506
509
513
506
505
510
513
507
507
512
511
506
507
510
508
509
530
579
632
668
675
636
568
531
527
527
514
506
506
504
497
498
503
501
495
498
503
500
496
499
504
499
499
503
507
502
502
507
509
503
505
511
511
506
510
516
513
509
513
519
515
511
515
519
511
508
512
513
504
504
508
507
501
502
508
505
500
503
509
505
501
505
509
503
502
506
510
503
503
509
510
503
504
510
508
503
505
511
507
503
506
511
505
503
507
511
504
505
511
514
508
510
518
519
513
514
520
517
512
514
518
511
508
510
515
508
508
513
515
507
507
514
513
504
505
515
526
555
610
661
664
619
557
521
508
509
512
511
500
498
503
504
497
499
504
502
497
499
506
503
500
503
508
502
500
505
509
503
502
507
509
504
505
511
510
505
506
512
509
504
508
513
508
504
506
509
501
498
502
502
494
495
500
498
491
493
500
497
492
495
500
495
493
497
501
495
493
498
501
494
494
499
500
495
496
502
501
497
499
505
502
499
502
506
501
499
504
508
502
503
507
510
507
509
515
513
507
510
516
513
507
508
512
507
505
508
512
504
503
507
510
504
503
506
508
509
533
584
636
668
666
620
553
521
520
521
508
501
502
503
495
494
498
497
491
492
498
495
489
491
497
494
491
495
501
496
495
499
503
497
498
503
505
499
501
506
506
502
504
511
507
504
508
513
506
503
505
509
501
499
504
505
498
499
504
503
497
498
504
501
496
498
505
500
498
502
508
502
501
505
508
502
502
506
507
500
502
508
506
501
503
509
505
501
505
511
505
504
509
513
508
509
514
514
507
507
513
511
504
504
509
505
500
503
507
501
499
504
508
502
500
501
503
501
516
562
620
662
675
641
571
523
516
519
508
498
495
496
488
486
490
492
485
484
490
490
485
487
494
492
487
490
496
493
491
495
500
494
493
497
501
496
497
501
503
497
499
505
505
500
504
510
505
501
503
507
500
497
500
503
497
497
501
502
496
496
500
499
494
496
502
499
495
498
504
499
495
498
502
497
497
502
505
499
500
505
506
500
502
508
505
500
503
510
506
503
508
514
509
509
513
516
509
509
515
516
508
509
513
510
505
506
511
507
503
506
510
505
503
504
509
508
522
559
610
648
655
619
556
510
504
511
507
499
498
502
497
494
498
502
495
494
499
502
497
498
504
504
498
501
508
507
502
506
512
507
505
508
514
509
508
513
517
509
509
515
516
510
511
516
513
505
506
510
504
499
500
505
498
496
499
502
496
496
500
501
495
496
502
501
496
497
504
501
497
500
505
500
497
501
506
500
500
504
506
500
501
507
507
501
502
509
507
503
506
514
509
505
509
514
508
506
509
511
504
504
509
509
503
505
510
509
504
507
512
507
503
510
525
542
583
632
656
625
568
522
506
501
503
505
500
492
493
498
494
489
493
499
494
492
497
502
496
497
502
505
499
499
505
505
500
502
507
505
501
506
512
507
506
510
515
508
508
513
515
508
506
509
507
499
498
502
498
492
494
499
494
490
493
498
492
490
494
497
490
491
495
497
490
491
496
496
492
495
501
497
493
496
502
497
495
499
503
497
496
501
504
497
498
507
508
502
504
509
506
501
503
507
500
496
500
504
498
498
502
505
499
500
506
506
497
500
511
525
557
611
657
655
609
552
520
508
508
507
504
493
491
495
495
487
487
493
492
486
487
493
490
487
490
496
491
490
494
499
493
494
500
502
497
498
505
505
500
503
510
507
504
508
513
508
505
507
509
501
498
501
502
495
495
501
500
495
497
502
499
495
497
502
497
494
498
502
496
495
499
502
496
496
501
502
497
499
505
504
498
501
507
504
500
503
509
503
502
505
509
504
504
509
510
504
505
510
509
502
504
509
504
500
503
508
503
501
504
509
503
502
504
506
505
521
564
617
656
668
637
571
524
516
520
510
500
499
500
491
488
492
495
488
489
494
495
489
490
496
494
490
493
499
496
492
497
502
497
496
501
506
501
502
507
510
503
505
512
512
507
509
514
510
504
505
508
502
500
503
505
498
498
502
504
496
496
502
501
496
497
504
500
495
498
504
499
496
499
504
498
497
502
504
498
498
504
505
499
502
507
506
501
504
509
506
503
506
511
506
506
513
516
508
507
512
513
505
505
510
507
501
503
509
505
502
505
510
505
504
507
508
502
506
527
566
615
661
679
644
576
534
529
524
514
509
509
500
496
498
501
495
494
498
501
494
495
501
501
495
497
503
501
497
500
506
501
499
503
508
503
503
508
512
506
507
513
515
510
512
519
516
509
510
514
508
503
504
508
501
498
501
505
498
498
502
505
498
499
504
504
498
500
506
503
499
502
508
503
501
505
509
503
503
508
509
503
503
509
509
502
504
510
508
503
506
512
508
505
509
514
508
507
513
517
512
511
516
516
509
510
516
512
504
505
510
506
503
506
510
505
504
508
511
505
504
512
521
532
573
629
661
651
605
551
517
510
514
516
505
499
501
504
497
496
501
503
497
498
503
503
498
500
507
505
500
503
509
505
503
507
512
507
506
512
516
511
512
518
520
515
517
522
519
514
516
519
511
505
506
508
501
498
501
503
497
497
502
502
496
497
503
502
498
501
506
502
499
502
507
501
499
503
507
500
498
504
505
499
500
505
503
498
500
506
502
498
502
508
503
501
505
509
503
502
507
510
504
506
511
510
505
507
514
512
506
508
513
508
505
508
511
503
502
506
508
500
500
506
506
500
502
506
503
501
511
537
575
621
654
647
590
532
511
513
505
500
500
498
490
490
495
492
486
488
495
492
488
491
497
492
491
495
499
494
494
501
504
498
499
505
505
500
502
509
508
503
507
512
508
507
511
517
509
505
508
508
499
498
502
500
493
494
499
497
492
493
498
494
491
495
498
493
491
495
498
492
492
498
500
494
496
502
501
497
498
504
501
497
500
505
498
496
500
503
497
496
500
502
495
497
503
503
497
499
505
502
498
501
507
502
500
505
510
503
503
509
513
506
506
512
512
505
506
510
507
502
504
510
505
502
506
511
505
504
508
511
502
503
514
532
567
622
668
670
623
563
532
520
515
514
513
503
499
501
503
496
496
502
503
497
497
504
502
498
500
507
504
501
505
511
506
504
508
511
506
505
510
512
507
507
513
512
506
509
516
514
510
511
514
508
504
506
509
501
499
502
505
498
499
504
503
496
497
503
501
496
498
504
500
497
500
505
499
498
502
504
498
499
505
506
500
501
506
505
499
501
506
501
497
501
506
499
498
502
506
500
500
504
506
500
502
508
507
503
505
510
506
502
505
510
505
502
507
513
506
505
509
512
505
505
509
508
501
502
507
503
499
501
507
501
498
503
507
499
496
503
517
541
593
650
676
650
593
542
520
513
511
511
500
493
494
497
491
489
493
496
490
490
495
496
491
492
497
496
492
495
502
499
494
499
505
500
499
504
509
504
505
511
514
509
510
517
517
511
513
519
514
509
509
512
505
502
504
507
501
500
504
506
500
500
507
507
502
504
509
507
503
506
511
507
505
508
512
505
503
508
512
505
505
510
511
506
508
513
511
506
508
514
510
506
509
514
508
506
510
513
506
505
510
511
504
505
512
513
507
509
514
511
508
511
515
509
506
510
514
505
503
508
510
503
504
509
509
503
503
509
507
503
504
509
508
515
545
599
639
658
642
588
527
508
514
513
503
500
503
499
492
494
500
496
492
495
500
494
493
498
501
495
496
503
505
499
502
507
506
502
505
512
508
505
509
514
509
508
512
517
510
511
516
518
509
507
510
508
500
501
506
502
498
500
506
499
496
499
504
498
498
503
504
496
496
501
502
496
498
504
502
497
501
506
502
499
502
507
502
500
503
507
501
501
507
507
501
502
507
505
500
502
508
504
500
503
507
502
502
507
511
505
503
509
511
505
505
510
508
502
503
508
504
499
502
507
501
498
501
505
499
499
504
507
499
499
509
520
543
592
643
654
620
565
525
507
505
507
507
496
492
495
496
489
488
494
493
488
490
497
495
490
493
499
495
492
496
501
495
495
500
504
497
497
502
504
498
501
507
506
501
505
511
509
506
508
510
503
498
500
502
494
493
496
497
489
489
494
494
488
490
496
493
489
492
497
492
490
494
498
492
491
496
499
492
493
498
499
493
495
500
497
493
495
501
496
493
497
502
495
494
499
502
495
495
500
500
495
498
504
504
499
502
508
505
501
504
508
503
501
504
506
499
498
502
502
495
495
501
500
494
497
504
498
495
502
520
546
595
647
669
634
574
529
517
509
506
505
498
488
488
494
491
487
489
495
491
488
492
496
489
488
493
496
490
491
497
498
493
495
502
501
496
499
507
504
502
506
510
505
504
509
513
507
507
510
510
503
503
507
504
497
499
503
498
494
498
503
496
495
498
501
494
494
499
501
494
496
502
501
495
499
505
502
498
502
507
501
499
504
509
502
500
505
508
502
503
509
508
502
503
508
506
504
508
514
509
507
511
517
511
510
514
516
510
509
513
513
506
507
512
510
505
507
512
508
505
508
511
503
505
520
554
600
650
676
652
585
534
523
521
512
507
507
500
495
496
500
494
492
496
500
494
494
499
502
496
497
504
504
500
501
508
505
502
505
511
507
505
509
514
508
509
515
518
513
515
521
521
515
515
518
513
506
507
511
505
501
504
507
500
498
502
505
498
498
503
504
498
500
506
505
500
503
510
507
504
507
512
508
506
511
515
509
508
514
516
510
510
516
514
509
510
516
514
510
514
519
513
512
517
522
514
513
518
519
511
511
515
513
507
508
514
511
507
510
516
510
507
511
514
509
515
532
565
607
647
658
621
557
517
514
515
509
508
510
503
499
501
506
500
498
501
504
498
498
503
504
498
499
505
504
500
502
509
506
503
506
513
508
506
511
515
509
510
516
518
513
514
520
519
512
511
514
509
502
503
506
500
496
498
501
494
493
496
498
493
492
497
496
491
493
498
496
491
494
500
495
493
495
500
494
493
498
502
495
495
500
500
494
495
500
499
495
498
505
501
496
499
505
500
498
501
504
498
497
501
502
494
494
499
498
493
494
500
497
493
496
501
495
493
502
516
533
575
624
645
617
564
520
502
499
503
505
498
491
493
497
491
489
492
498
493
493
498
501
495
497
503
504
499
501
507
507
503
506
513
510
509
514
519
514
515
519
523
518
518
524
525
519
518
521
516
508
508
512
507
502
504
508
502
501
506
509
501
500
504
506
499
499
505
503
497
499
505
502
497
500
505
499
497
501
504
498
498
502
504
497
498
503
503
497
499
505
503
499
502
508
504
501
504
507
499
498
502
504
497
497
501
501
494
495
501
499
493
496
501
498
494
496
504
506
523
564
614
636
625
587
536
502
500
507
502
492
490
494
490
486
489
493
488
487
491
496
490
489
494
496
491
492
498
497
491
494
500
497
493
496
503
498
497
501
507
502
503
508
511
506
507
511
509
501
500
504
500
492
493
498
492
489
492
496
491
489
493
496
490
490
495
496
490
491
497
496
490
492
498
494
491
495
499
494
493
497
501
495
495
501
503
498
499
506
506
502
505
511
508
505
508
512
506
505
509
512
503
501
504
506
499
499
505
504
498
501
507
505
502
504
512
515
531
574
628
653
645
604
551
515
511
517
513
501
497
501
498
493
495
500
495
492
496
501
496
495
500
504
498
499
504
505
499
500
507
506
502
506
512
509
506
510
515
510
509
513
517
512
512
515
515
505
503
507
504
497
497
502
497
492
495
500
494
492
496
500
494
494
499
501
495
496
502
502
495
497
502
500
495
498
503
497
495
499
503
497
496
502
505
499
499
505
506
500
503
510
508
503
506
513
508
505
508
512
505
503
507
508
500
500
506
507
501
502
508
506
501
503
508
501
499
510
537
578
630
661
652
595
539
518
517
508
503
503
497
490
490
496
492
487
491
497
492
491
495
499
493
493
497
500
495
496
502
502
497
499
504
502
498
501
507
502
501
505
510
505
504
509
512
506
505
508
506
499
500
504
501
495
497
500
496
492
495
499
493
491
495
498
491
492
498
499
493
494
500
500
495
497
504
501
497
500
505
500
498
503
506
500
499
503
505
499
499
505
505
500
502
508
506
502
505
510
505
503
506
509
503
501
505
507
500
500
506
507
501
503
508
505
500
501
507
507
524
572
634
666
665
624
564
524
517
520
515
502
500
504
500
494
495
500
497
493
497
503
498
497
502
506
501
501
506
507
502
504
511
510
505
507
513
510
506
509
514
509
507
512
516
510
510
516
518
510
509
513
511
504
506
512
508
503
506
510
505
502
506
511
506
504
509
512
506
506
511
511
504
506
512
510
505
507
513
508
504
507
512
506
504
508
511
504
505
512
514
509
511
517
515
511
514
520
515
511
514
518
512
509
511
514
507
506
511
512
506
508
514
513
507
508
511
509
509
527
573
625
666
673
633
562
526
524
525
513
508
509
506
499
500
505
502
497
500
505
499
496
500
504
499
498
503
507
501
502
508
509
505
508
514
513
507
510
516
513
511
515
520
514
514
518
521
514
512
515
514
506
506
510
508
502
503
510
505
502
505
510
505
503
508
511
505
505
510
512
505
506
512
510
506
507
514
510
506
509
514
509
506
509
513
507
508
513
516
511
512
518
519
515
517
523
520
515
517
522
515
511
513
517
510
509
513
515
509
509
514
514
507
507
514
518
525
556
609
648
653
617
560
513
504
511
515
505
502
505
505
497
498
504
503
497
499
505
502
499
502
507
501
500
504
508
503
503
509
513
507
508
514
513
507
509
516
513
508
511
517
512
510
513
516
509
507
510
511
502
501
506
504
498
500
505
502
497
499
505
500
497
500
505
499
497
501
503
497
498
502
503
496
498
504
503
498
501
507
502
499
503
507
502
501
505
510
505
506
511
511
504
504
509
507
499
500
503
498
494
496
502
497
495
498
502
495
493
496
501
501
519
561
609
637
633
590
528
494
496
503
496
489
489
491
484
483
487
490
484
484
490
490
484
486
493
491
487
489
494
489
487
491
496
490
490
495
499
493
494
499
501
495
496
503
501
497
500
506
501
497
499
502
495
491
494
497
490
489
493
494
488
489
495
494
488
490
496
494
490
493
497
492
491
495
500
495
495
500
502
497
498
503
503
498
500
507
504
500
503
509
505
504
508
511
504
504
508
510
502
501
506
506
500
501
506
504
499
501
507
502
499
501
505
503
516
554
610
649
660
629
569
520
511
517
511
499
497
499
494
489
492
496
491
490
494
498
492
493
498
501
496
498
504
503
498
500
506
503
499
503
508
504
502
506
511
506
506
511
514
508
509
514
513
506
505
508
504
498
499
503
498
495
498
502
496
495
499
502
496
496
502
504
499
501
507
506
502
505
510
505
502
506
511
505
504
509
512
505
505
510
513
507
509
515
516
512
514
518
514
510
512
515
509
506
508
510
503
503
507
508
501
502
508
507
501
501
508
511
524
567
627
664
664
624
564
521
513
516
512
499
494
496
495
489
490
495
493
489
492
498
493
491
495
500
494
494
499
503
498
498
503
504
499
501
508
506
502
505
511
507
504
509
514
508
506
509
512
505
503
507
507
501
501
506
504
498
501
506
502
499
502
507
501
500
503
506
500
500
505
507
502
503
509
509
503
504
510
506
503
505
511
505
504
508
512
507
507
512
516
510
511
516
517
511
512
516
513
507
509
514
509
505
508
513
507
506
511
513
505
505
515
527
549
599
650
661
623
566
525
510
509
511
512
502
498
499
502
495
495
500
502
497
499
504
503
498
502
509
506
502
506
511
506
504
509
514
508
508
514
516
510
510
516
516
510
513
518
515
510
511
514
506
501
502
506
499
497
502
503
496
496
501
500
494
495
500
498
494
496
502
498
495
499
504
498
496
500
504
498
497
503
504
497
499
504
503
498
502
509
505
501
505
511
507
505
508
509
502
501
505
506
498
497
502
502
496
498
504
501
497
500
505
499
497
504
519
539
583
633
649
614
558
516
503
501
503
505
498
491
493
497
493
490
493
496
490
490
496
499
494
494
500
502
498
500
507
505
502
505
511
507
505
510
515
509
508
511
514
507
507
513
513
506
505
508
505
498
498
503
497
493
495
500
494
491
495
498
492
491
495
497
491
493
498
497
492
495
500
496
493
496
502
498
496
501
505
499
498
503
506
500
500
505
505
500
504
509
506
501
503
508
502
498
500
503
497
497
501
503
497
497
502
503
497
497
501
501
503
524
571
617
646
638
592
529
502
504
509
499
495
496
495
488
488
494
493
488
491
497
494
491
494
499
495
494
498
502
497
498
503
506
500
502
508
508
503
506
512
510
507
511
516
512
509
513
515
507
504
506
506
497
496
500
500
493
494
500
497
492
494
499
495
493
496
501
495
494
498
501
494
495
500
501
495
496
502
502
498
501
508
505
502
506
512
507
504
507
510
503
503
507
507
499
499
505
504
499
502
508
505
501
504
509
499
496
502
519
550
605
655
668
625
564
526
516
509
507
508
500
492
493
498
492
489
492
496
491
491
495
498
494
494
500
500
494
496
503
502
498
501
506
502
500
504
510
504
503
508
512
506
507
512
513
506
505
509
505
499
500
505
499
495
497
502
497
495
499
503
497
497
502
504
498
499
505
503
497
499
505
501
497
501
506
502
500
503
507
501
501
506
509
504
506
512
511
506
509
516
514
510
513
518
513
510
512
515
509
507
511
515
509
510
516
516
510
512
517
513
509
519
543
581
630
667
662
605
544
520
521
516
513
512
509
501
501
506
505
500
502
507
503
500
503
507
502
502
505
510
504
503
508
511
506
507
514
513
508
512
520
518
514
518
524
520
518
521
524
516
513
516
516
508
507
510
509
502
504
509
506
501
503
509
503
500
504
509
503
502
505
508
501
501
506
506
500
502
507
506
502
504
509
505
502
505
510
504
503
507
511
505
504
509
512
506
507
512
511
506
507
512
507
502
504
508
501
498
502
505
498
499
504
506
498
500
511
524
548
595
640
643
604
553
518
505
505
508
507
497
495
498
501
495
495
500
501
496
498
504
502
498
501
506
503
499
503
508
503
502
506
510
505
505
512
514
507
510
516
515
510
511
516
512
507
509
512
503
500
501
503
496
495
500
502
495
495
501
500
493
496
502
498
496
499
503
498
496
500
504
498
498
502
505
500
501
507
506
501
503
509
506
502
505
511
508
506
510
514
507
508
514
517
510
509
514
514
506
507
512
509
504
506
511
507
504
508
513
507
506
511
513
509
513
532
564
607
649
662
624
560
524
522
518
511
510
510
503
499
502
504
498
497
502
504
497
498
504
504
500
502
508
505
502
505
512
509
507
512
516
511
512
518
520
515
516
522
523
518
520
525
522
515
516
518
512
508
509
512
504
502
506
509
501
501
506
507
500
501
507
505
500
502
508
504
501
505
509
504
503
508
511
505
504
508
509
503
504
509
507
502
504
510
506
501
504
509
504
502
508
512
506
505
508
510
503
502
507
506
500
501
506
503
498
501
506
500
497
499
502
496
499
514
539
574
617
636
612
555
511
503
504
501
499
501
495
490
492
496
490
490
494
496
490
490
496
497
491
493
499
498
495
497
504
501
499
503
509
505
504
509
513
507
508
514
516
509
510
515
514
507
506
509
503
497
498
501
496
492
495
498
492
490
494
495
488
489
495
495
489
490
495
493
489
492
498
494
492
495
500
495
494
498
501
496
496
501
502
497
497
503
502
498
500
506
502
500
502
507
502
501
505
508
502
503
507
508
500
499
504
503
497
499
505
502
498
501
505
501
498
501
508
512
533
577
623
636
617
572
524
502
506
513
507
498
498
501
496
494
497
502
496
495
500
503
497
498
505
506
501
502
509
507
504
508
514
510
508
512
518
514
513
517
520
514
514
520
522
516
517
521
518
511
511
514
508
503
505
509
502
499
502
505
499
498
502
504
497
498
504
502
497
499
504
502
498
501
506
501
499
502
506
502
500
504
507
500
500
505
506
500
502
508
506
502
504
510
507
504
507
511
506
506
511
514
507
507
511
511
505
506
510
508
503
505
511
507
504
506
512
506
505
508
512
511
527
566
616
645
645
611
553
513
510
516
509
500
498
501
494
492
495
500
493
491
495
499
493
494
499
499
494
497
503
501
498
501
507
502
500
504
509
503
503
507
510
504
505
510
510
505
508
513
510
504
505
508
503
499
501
504
498
496
499
502
496
495
500
501
495
495
501
500
495
496
501
496
493
496
502
496
494
498
502
496
496
500
503
496
497
503
502
497
498
504
501
497
501
507
503
502
505
510
507
507
511
512
506
507
512
510
503
503
507
504
499
502
507
502
499
502
507
501
498
502
508
513
544
600
643
649
622
572
526
510
512
514
503
495
495
498
493
491
495
499
493
493
498
500
493
495
502
502
497
501
507
505
502
505
510
505
504
509
513
507
507
512
514
508
508
513
513
508
510
515
510
505
506
509
502
498
501
504
498
496
501
503
497
498
502
501
495
496
502
499
494
497
504
500
497
500
505
499
498
502
504
497
497
502
503
497
498
505
503
499
502
508
505
502
505
509
505
505
510
514
507
506
510
511
504
505
509
507
502
503
507
503
499
502
507
502
498
500
505
507
531
585
640
663
647
595
539
513
512
514
504
494
493
496
490
487
489
493
487
487
492
495
488
488
494
494
490
492
498
497
493
497
503
499
496
499
504
499
497
501
505
500
500
506
508
503
504
508
506
500
502
506
501
496
499
504
498
496
500
503
497
496
500
502
495
496
502
502
496
499
505
502
498
502
508
503
501
504
509
503
502
506
508
503
503
509
510
504
508
514
512
508
512
519
515
512
514
519
513
511
514
516
509
508
513
514
507
509
516
514
509
512
517
511
505
510
523
542
588
644
676
647
586
537
520
515
515
515
508
499
499
503
499
494
497
502
497
495
498
502
496
496
501
504
499
501
507
508
503
506
512
510
506
508
514
509
507
510
515
508
507
512
515
510
509
514
513
504
503
507
505
499
501
505
500
496
500
504
498
496
500
503
497
497
502
505
499
500
506
506
501
503
507
504
501
503
508
502
500
505
509
503
504
509
511
505
507
513
512
506
507
513
510
505
506
510
504
503
506
510
504
502
507
509
503
504
508
509
509
525
561
605
639
643
605
540
501
502
511
507
502
503
504
496
496
501
501
496
498
504
503
498
500
506
502
500
504
509
504
503
508
512
506
507
513
515
509
511
517
516
510
512
518
515
511
512
516
510
506
507
510
501
499
502
504
497
496
501
501
495
497
502
499
495
497
503
498
495
498
503
498
497
501
504
498
499
504
505
499
500
505
504
500
503
509
504
501
506
511
505
503
507
508
501
501
504
504
498
498
502
500
495
498
503
500
496
499
503
497
500
517
551
592
632
641
605
541
504
506
509
503
500
501
496
491
493
497
493
490
493
497
492
493
498
502
496
497
503
504
498
500
506
505
501
504
510
506
504
508
513
507
506
511
514
508
508
513
513
505
505
508
505
498
498
503
498
493
496
500
495
493
496
500
495
494
500
503
496
497
503
502
497
500
505
502
498
500
504
500
498
501
506
500
500
504
506
501
503
508
508
503
504
509
505
499
501
505
499
497
501
505
499
498
502
505
499
500
504
504
501
513
548
595
637
655
631
569
521
511
516
508
501
501
502
493
492
496
497
491
492
498
497
493
495
501
498
495
498
505
500
499
503
507
501
502
508
510
505
507
513
513
508
509
513
511
507
510
514
508
504
506
509
502
499
503
505
498
497
503
502
496
497
503
501
497
499
504
499
496
499
504
499
497
501
505
498
498
503
503
497
498
505
504
500
502
507
506
503
505
510
505
503
507
508
500
499
502
503
496
498
503
501
496
498
503
500
496
496
499
497
508
550
610
646
654
622
564
519
510
515
510
498
495
498
495
490
492
498
493
490
494
498
492
491
495
498
492
493
498
499
494
496
502
502
499
503
509
504
501
505
511
505
503
507
511
506
506
510
510
501
501
505
503
497
498
504
500
495
498
503
497
495
498
502
496
496
501
503
497
497
502
500
495
496
501
498
494
497
502
498
495
499
503
498
497
502
505
500
502
509
509
503
505
511
508
504
505
509
503
500
504
508
503
502
507
510
505
505
510
506
499
504
529
575
628
669
673
622
555
527
526
517
508
505
504
494
493
497
497
490
491
497
496
491
493
499
496
492
495
500
495
493
497
501
496
496
501
504
498
500
505
505
500
502
509
507
504
506
511
506
501
503
507
500
498
501
503
498
499
503
502
496
497
502
500
495
498
504
500
497
500
504
498
496
501
505
499
498
503
504
498
499
505
504
499
501
507
505
502
505
510
505
505
510
513
506
506
511
511
505
505
509
508
501
502
507
505
500
502
507
502
500
500
502
497
507
544
602
648
669
647
584
530
518
522
516
504
500
501
495
492
495
499
493
491
497
500
494
493
498
498
492
493
500
499
496
499
506
503
500
504
509
505
504
509
512
507
507
512
514
508
509
514
512
505
506
510
507
502
504
508
502
500
503
506
500
499
503
506
500
501
507
507
502
504
510
507
502
505
511
507
504
508
512
506
504
508
510
504
506
510
512
508
510
517
515
511
515
520
515
511
514
518
511
509
512
514
507
507
512
513
507
508
514
514
509
511
514
510
513
529
568
611
647
650
608
542
510
512
517
509
506
509
506
499
500
506
503
499
504
509
504
502
507
511
506
506
511
513
507
507
514
514
509
511
518
516
512
515
520
516
513
517
522
517
516
519
521
514
512
516
515
506
506
510
508
503
505
511
507
503
506
511
505
503
507
510
504
503
507
509
503
505
511
511
506
508
514
510
506
507
511
505
503
507
511
506
506
511
513
507
508
515
517
513
514
520
517
511
513
517
511
508
510
514
507
506
510
512
505
505
510
509
502
507
521
543
584
634
665
638
577
530
518
513
509
508
506
496
494
498
498
491
492
498
496
491
493
499
496
493
497
502
498
497
501
505
500
500
505
506
500
501
507
507
503
505
509
506
501
504
509
503
500
502
504
496
494
498
500
492
493
498
497
491
493
499
497
493
495
501
496
494
497
501
495
494
498
501
495
496
502
503
497
498
505
503
499
501
506
502
498
501
506
501
500
505
508
502
504
510
512
506
507
512
511
504
506
511
507
502
504
509
504
502
506
510
504
503
505
505
502
513
546
596
641
668
654
592
533
517
521
512
503
500
500
492
489
493
494
488
487
492
493
488
490
495
494
491
494
500
497
495
498
504
499
498
503
506
500
501
506
508
502
503
508
508
503
505
511
507
502
503
506
500
497
499
501
493
493
496
497
491
491
497
495
490
493
499
496
492
495
500
495
492
495
499
493
492
497
500
494
495
499
499
493
495
501
499
494
496
502
499
497
500
505
501
500
503
505
499
500
506
507
500
499
504
503
497
499
505
502
498
501
505
500
497
498
502
503
526
578
634
665
658
610
546
512
510
513
503
493
491
494
488
485
487
491
485
485
489
490
484
485
491
492
487
490
497
495
492
497
502
498
496
499
503
496
496
501
504
499
500
505
506
501
502
507
505
498
498
503
498
494
496
499
493
491
495
499
493
494
498
500
494
495
501
501
497
500
505
501
497
500
505
500
499
502
505
500
500
504
505
499
500
506
506
501
503
510
508
504
507
514
510
509
511
515
509
510
514
515
506
505
511
511
505
506
512
509
504
508
514
508
503
510
524
538
578
630
661
640
587
536
515
508
510
513
507
499
499
504
499
496
499
504
498
497
501
505
500
500
505
507
502
503
510
510
505
508
514
512
509
512
518
514
512
516
521
515
515
520
522
516
516
519
516
507
507
511
507
501
503
508
503
500
503
506
499
498
502
506
500
499
504
505
499
500
506
504
499
500
506
501
497
501
506
500
500
504
507
501
500
504
505
499
501
506
506
501
504
511
509
505
508
513
507
504
506
509
502
500
503
505
500
500
505
505
499
502
508
505
501
509
525
547
588
635
652
617
562
520
510
507
508
509
505
496
496
500
498
493
495
500
497
495
498
503
498
498
502
507
502
503
508
509
504
505
511
511
507
510
517
514
511
515
520
515
514
517
521
514
512
513
511
503
502
506
503
496
497
502
498
493
495
500
495
493
496
500
494
492
496
499
494
493
498
498
493
495
501
499
494
497
503
499
496
499
503
498
496
500
503
497
498
504
505
501
502
508
508
503
506
511
508
504
506
510
504
500
503
507
500
499
504
506
500
501
506
505
499
499
508
514
532
578
633
656
640
591
539
509
506
509
506
494
491
494
492
485
486
491
489
484
488
494
490
489
493
498
492
492
496
500
494
495
500
502
497
499
505
504
500
503
510
508
505
508
513
508
506
508
510
501
500
503
503
496
496
500
498
493
495
500
496
492
495
501
496
494
498
501
495
495
500
502
496
497
502
503
498
500
505
501
496
499
505
501
499
501
505
500
498
503
506
500
500
506
507
502
503
510
508
506
509
515
510
507
510
514
508
505
507
508
502
502
506
507
501
502
508
507
503
504
507
505
509
534
583
631
664
663
619
553
522
521
521
508
502
504
501
494
495
500
497
492
495
501
496
493
497
501
496
496
501
503
497
498
504
505
500
502
508
506
502
505
510
506
503
508
513
508
508
512
515
508
507
510
509
502
502
507
505
500
502
507
503
499
503
507
502
501
505
508
502
501
505
507
501
502
508
507
502
506
512
509
505
508
513
508
506
509
513
507
506
510
513
508
509
513
514
508
511
517
515
511
515
521
518
517
520
525
519
518
521
523
515
515
520
519
512
514
520
518
513
515
520
516
512
515
523
528
556
611
660
672
646
591
541
519
521
524
517
507
506
510
506
502
504
509
504
503
507
511
507
507
512
515
510
511
517
517
512
513
519
517
513
516
522
517
515
519
523
518
518
523
525
518
518
523
521
514
513
517
513
506
508
513
507
502
504
508
501
500
504
507
501
501
506
506
500
501
506
504
500
503
508
503
499
502
507
502
500
504
507
501
501
505
506
500
501
506
506
500
503
508
506
503
506
510
504
502
508
513
508
507
511
513
506
505
508
507
501
503
508
506
502
504
510
506
503
507
510
506
512
530
568
608
642
646
608
546
511
511
512
506
504
504
498
494
497
501
496
495
498
501
495
495
500
502
497
498
504
503
498
501
507
504
501
505
511
507
505
509
514
508
507
511
514
508
509
515
514
506
506
509
504
498
499
501
495
492
495
499
493
492
496
499
493
495
500
500
494
495
501
500
496
498
503
499
496
499
504
497
496
500
504
497
496
502
503
498
498
503
501
496
499
504
500
498
501
507
502
500
505
509
503
501
505
507
500
501
505
504
498
500
505
500
496
499
504
499
496
499
501
494
498
514
547
590
636
657
629
565
520
514
512
504
500
500
493
487
490
494
489
488
491
494
487
486
492
494
489
491
496
495
491
494
500
497
495
499
504
500
500
504
508
502
503
509
511
506
507
513
512
505
505
508
504
499
500
503
498
494
497
500
494
493
498
500
494
495
500
501
495
497
503
500
496
498
504
499
496
499
503
497
496
500
502
496
497
502
503
498
500
505
504
498
501
507
504
501
505
511
506
504
509
515
509
508
513
514
507
506
511
509
503
503
507
503
499
501
506
501
500
504
508
501
500
507
518
541
590
646
669
643
587
539
518
513
512
511
500
494
495
498
491
489
494
497
490
491
496
497
492
493
499
498
495
498
504
501
498
502
508
504
503
508
513
507
509
514
516
511
513
518
517
511
512
517
511
505
507
510
504
500
502
506
499
498
502
502
496
497
502
501
496
498
503
500
496
499
505
500
497
500
505
499
499
503
505
500
500
506
506
500
501
506
504
500
503
508
503
500
504
508
503
502
506
510
504
505
512
513
507
509
513
510
505
506
511
507
504
507
513
507
506
510
513
507
507
511
511
507
517
548
596
640
668
658
598
534
513
517
511
505
503
503
497
496
500
502
496
496
501
502
497
499
506
503
499
501
508
504
502
505
511
506
505
508
512
506
506
513
515
510
511
517
517
513
516
521
517
511
512
514
506
502
504
506
499
498
502
503
498
499
504
503
497
499
505
502
498
500
505
500
498
502
506
500
499
503
505
500
501
508
507
501
502
508
506
502
504
510
506
503
507
513
508
507
512
515
511
511
517
516
509
509
514
510
504
505
511
507
504
507
512
506
505
508
512
506
505
511
518
523
551
602
638
641
613
563
515
498
505
512
504
498
499
503
497
496
500
502
495
496
501
500
495
497
503
501
498
500
507
503
501
505
511
506
506
512
516
509
510
515
516
511
512
518
517
512
514
517
509
503
504
507
499
495
498
499
492
492
497
497
491
492
497
495
490
492
497
494
490
493
498
492
489
493
496
490
490
495
496
490
491
498
498
492
495
500
497
494
498
504
500
498
502
505
501
501
506
508
502
502
507
507
500
500
505
503
498
501
506
501
498
500
504
498
496
499
505
506
523
561
606
630
622
586
532
497
497
506
501
493
493
497
490
488
492
495
489
490
494
497
492
494
499
500
496
500
506
503
500
504
511
507
505
510
515
510
510
515
518
512
514
519
520
514
516
522
517
511
510
512
505
500
502
505
499
498
502
504
498
498
503
504
498
498
503
502
497
500
505
501
497
501
506
501
500
505
508
502
502
507
508
502
503
508
507
502
505
512
510
507
509
515
511
509
511
513
506
505
510
511
504
503
508
508
502
503
509
506
501
503
509
506
503
508
518
525
553
604
648
650
619
570
527
509
513
519
512
501
501
505
500
497
499
504
499
498
503
507
502
503
508
509
503
505
512
512
507
510
516
514
510
513
519
515
515
520
524
519
519
523
526
520
521
525
522
513
512
516
510
505
506
510
504
500
503
506
499
498
502
505
499
499
504
504
498
499
504
502
498
501
506
502
500
503
506
500
498
503
505
498
497
502
503
497
499
505
505
500
503
510
508
505
508
511
506
503
506
508
501
499
503
506
499
500
505
504
499
500
505
503
498
501
509
516
545
598
644
647
616
564
523
504
506
509
504
494
493
497
493
488
490
495
490
487
492
496
491
491
495
498
492
493
499
500
495
497
503
503
499
501
507
504
502
506
512
507
506
510
514
508
507
510
510
502
500
504
502
496
498
503
499
495
497
501
496
494
497
501
495
494
499
501
494
494
499
499
493
495
501
499
495
498
503
499
496
498
502
497
496
500
501
494
495
501
503
498
501
507
506
502
506
513
508
505
507
511
505
503
505
508
502
501
505
506
499
500
505
504
500
502
506
502
502
515
552
599
644
662
637
573
527
518
520
510
504
504
501
493
493
498
495
491
493
498
493
492
496
501
496
496
500
503
498
499
505
507
502
504
510
508
504
506
512
508
505
509
514
509
508
512
515
508
506
508
509
501
502
505
503
498
500
505
501
496
499
503
498
496
500
504
497
497
501
504
497
498
502
502
496
498
504
501
497
500
506
503
501
503
508
502
501
506
509
503
504
510
511
505
507
513
513
510
512
517
513
509
512
517
510
508
510
512
506
505
510
510
505
506
511
511
505
505
511
514
534
586
646
673
658
607
552
522
520
522
516
503
500
503
500
493
494
498
495
491
493
499
495
493
497
501
495
495
500
503
498
499
505
505
499
502
509
507
503
507
513
509
506
509
514
508
507
511
514
507
504
507
507
501
501
506
504
498
500
507
503
500
503
507
502
501
505
508
502
502
506
507
501
502
507
507
502
503
509
506
502
505
510
504
502
507
512
507
507
511
515
510
511
517
519
514
515
521
518
514
516
520
515
511
513
517
510
509
513
514
507
507
513
515
508
507
513
518
532
580
636
663
648
596
541
510
508
513
513
502
500
503
504
498
499
504
503
498
501
506
503
500
504
509
504
502
506
509
504
504
508
511
506
507
513
513
507
510
516
513
509
511
517
513
510
513
515
507
504
507
508
501
500
504
504
498
500
506
503
499
501
506
502
498
500
504
499
497
501
505
498
498
502
503
497
498
503
502
497
500
505
501
498
501
506
501
500
504
508
502
503
509
510
504
504
511
510
504
504
508
503
498
500
505
500
497
500
504
498
498
502
504
502
511
538
577
616
640
625
567
510
496
503
502
497
495
497
490
489
492
495
489
489
495
497
492
493
499
498
493
496
502
499
497
501
507
502
502
506
510
505
505
510
512
506
508
514
513
507
509
514
509
504
505
507
500
496
498
501
495
494
498
499
493
493
498
498
493
495
500
497
493
496
500
495
493
496
501
496
495
499
502
496
496
50‡5¯4965¯5¯505
507
507
506
504
502
500
500
499
499
500
500
501
502
503
505
506
506
501
500
505
507
501
501
506
506
501
504
509
507
503
506
511
506
504
507
512
507
506
509
511
505
505
511
513
509
511
518
516
513
517
521
516
513
516
520
513
511
514
516
509
509
513
513
507
508
513
511
507
510
514
511
514
531
571
616
652
662
631
566
522
516
520
513
509
509
506
499
499
504
501
496
499
504
499
497
501
506
500
500
505
508
502
503
509
509
504
506
511
509
505
509
515
512
510
513
517
512
510
514
517
510
508
510
508
500
499
504
501
496
498
503
500
496
499
504
498
497
500
503
497
498
503
504
498
499
504
504
499
500
506
503
500
502
506
502
500
505
509
503
503
506
508
502
503
508
507
502
505
512
510
505
508
515
512
510
512
515
509
508
510
511
504
503
508
507
501
502
509
507
503
505
510
505
501
506
517
528
565
617
653
641
595
543
515
506
508
510
503
494
494
498
494
491
493
498
494
492
495
499
494
494
498
501
496
497
503
503
498
501
507
503
499
503
508
504
503
507
513
508
507
511
514
508
507
511
508
500
499
504
501
495
497
500
495
492
495
498
493
492
495
498
491
492
497
499
493
494
499
498
493
495
501
497
494
498
503
497
629ç5¸514
515
514
513
511
511
511
511
511
512
513
513
514
515
515
515
515
513
509
510
513
510
507
509
512
497
496
495
494
494
494
493
493
492
491
491
490
490
491
492
493
495
499
506
509
505
500
500
503
499
498
501
506
504
506
511
514
511
513
518
520
516
518
522
521
517
518
522
519
517
525¸¸¸5¯4954994995¸5Ò5¸5¸5Ò5¸49¸512
5134945¯514497494496511
513
511
510
509
509
509
509
510
511
512
513
514
516
516
516
516
515
512
514
518
516
515
518
520
515
513
515
514
507
505
507
506
501
502
505
503
498
500
503
501
500
502
505
501
499
501
503
499
499
502
503
499
499
503
502
498
499
503
500
498
499
503
500
499
502
506
502
502
505
508
505
505
508
508
505
505
507
505
501
502
505
502
500
502
505
500
500
503
505
499
499
506
517
538
583
629
644
620
571
525
506
505
507
506
499
494
495
496
491
490
494
494
491
492
496
497
495
497
501
498
497
501
505
502
501
504
507
503
504
507
509
506
507
510
510
507
510
514
513
510
511
513
507
503
503
504
498
497
498
499
494
494
497
498
494
495
499
497
494
496
499
496
494
496
498
494
493
497
499
495
495
498
499
495
497
501
499
496
499
503
502
500
503
507
505
506
508
510
505
506
508
509
504
503
505
504
501
503
505
503
500
501
505
502
500
501
505
507
522
559
610
641
640
604
551
516
513
518
514
505
503
504
500
497
499
501
497
497
501
504
501
502
506
508
505
507
512
510
508
510
515
514
512
516
520
518
517
520
524
521
521
524
526
522
522
525
524
517
516
518
515
509
509
511
508
505
506
508
504
503
506
507
503
505
509
509
505
506
509
508
505
506
510
508
505
507
510
507
507
509
511
507
507
510
511
507
509
513
512
509
510
514
514
511
512
515
511
509
510
512
507
505
507
508
503
505
508
508
503
505
507
505
500
502
509
519
549
601
648
661
633
579
537
520
518
517
511
502
499
500
498
495
496
500
497
496
498
502
498
497
500
502
499
500
504
505
501
502
506
505
502
504
509
508
506
509
514
510
510
513
515
511
512
514
514
507
506
507
506
503
502
504
501
497
499
501
498
496
498
502
498
498
501
503
498
499
502
502
498
500
503
501
498
500
503
500
498
501
504
499
499
502
504
500
500
504
505
502
503
506
505
503
505
509
506
504
506
509
504
502
505
506
502
502
504
505
501
502
505
504
501
502
504
502
503
518
553
600
642
658
628
564
521
513
515
507
501
501
499
493
493
495
494
491
493
497
494
492
495
499
495
494
498
502
498
499
502
504
501
503
507
506
503
505
509
508
506
508
512
509
509
513
515
510
507
508
507
501
500
502
501
496
497
500
499
495
497
500
497
496
498
501
497
496
498
500
496
495
498
499
495
496
499
497
495
497
500
498
495
497
499
494
493
495
497
493
494
498
499
495
496
502
501
497
499
502
500
497
498
500
496
494
496
499
495
495
499
501
497
497
501
500
496
501
514
537
579
626
652
628
572
526
513
508
506
503
500
493
492
494
494
489
490
494
493
490
493
497
495
494
497
501
498
499
503
506
503
503
507
509
505
507
512
513
510
512
516
514
512
515
519
515
513
515
516
509
507
508
509
504
503
505
505
501
503
506
504
501
503
508
505
503
505
507
502
502
5‡496497488
490
489
490
490
490
491
492
492
492
492
491
489
488
487
486
486
4498
501
501
502
502
503
504
505
504
504
503
501
500
499
499
499
499
500
504
503
499
502
505
503
500
502
505
502
501
504
506
504
505
507
508
503
504
507
505
500
500
503
500
498
500
503
499
498
499
502
498
498
499
500
500
513
547
595
635
650
623
564
517
509
512
506
498
496
497
492
490
492
493
489
488
491
492
488
490
494
494
491
493
498
497
494
497
501
499
498
501
504
501
502
504
506
501
502
506
507
504
505
509
507
502
502
504
498
495
495
496
492
490
492
494
490
492
496
496
493
494
498
496
494
497
500
497
495
497
500
496
496
499
502
498
498
501
502
498
498
502
502
499
500
504
502
500
502
506
503
501
504
506
502
503
507
509
505
506
510
511
507
507
511
508
504
505
507
503
501
504
505
502
502
505
508
503
503
508
507
500
502
511
526
562
617
664
668
626
567
531
518
514
510
505
495
492
494
494
489
490
492
491
488
489
493
491
489
492
495
493
492
495
499
496
496
499
500
497
497
501
501
498
500
504
503
500
504
509
507
505
507
510
504
501
503
503
498
497
500
499
495
497
500
499
496
498
501
499
497
499
502
498
497
500
502
497
497
500
501
497
497
502
502
498
500
503
501
499
501
505
501
499
502
505
501
501
504
505
502
503
506
506
503
505
509
507
504
507
512
510
508
510
513
509
508
510
511
506
506
508
508
504
505
508
507
504
506
510
507
501
505
515
529
571
628
672
669
624
565
531
521
520
518
511
503
501
502
500
497
499
502
498
496
499
503
500
501
504
506
503
503
508
508
504
505
509
509
505
507
511
509
508
512
515
511
511
515
517
512
512
514
513
507
505
506
503
499
500
503
501
498
500
502
498
497
499
502
498
498
501
501
497
498
502
502
498
498
502
501
497
498
501
498
497
500
503
499
499
501
503
499
500
503
505
502
503
506
506
502
504
508
506
504
507
510
508
507
510
512
508
508
511
511
506
506
508
506
502
503
507
505
502
505
509
506
504
505
509
513
531
574
623
647
642
600
544
511
509
514
510
502
500
501
497
495
497
500
495
495
498
500
495
495
500
500
497
498
501
501
498
500
504
502
500
503
507
504
503
506
509
505
505
509
511
508
509
511
509
503
503
504
500
496
497
500
495
493
495
496
492
492
496
497
493
494
498
497
493
494
497
496
493
496
500
498
496
498
501
498
498
502
504
500
500
504
504
500
501
505
503
500
502
506
504
502
506
510
507
506
511
514
509
509
512
512
507
507
510
509
506
507
510
509
506
507
510
506
504
506
508
503
505
516
537
574
624
657
646
591
537
518
515
511
508
505
499
495
496
499
494
493
494
496
492
493
496
497
494
495
499
499
496
499
503
501
499
503
507
504
504
508
511
508
509
513
515
511
513
517
517
512
512
514
510
505
506
508
503
500
502
504
500
500
502
504
499
499
502
503
498
499
503
502
499
501
504
501
498
501
504
500
499
502
504
499
499
503
504
500
500
503
502
498
500
504
503
501
504
507
505
503
506
510
507
506
509
511
507
506
508
507
502
502
504
502
499
502
505
501
500
502
504
500
497
501
508
521
561
617
660
662
622
564
527
516
516
514
504
496
496
497
493
491
492
494
491
491
495
497
493
493
497
497
495
497
501
499
497
500
504
501
500
503
507
504
504
508
510
506
508
512
513
509
510
513
510
505
505
507
502
499
500
503
498
497
499
501
496
497
499
500
495
496
499
498
495
497
501
499
497
499
502
499
498
500
503
499
499
502
505
502
502
504
504
501
503
507
505
503
505
509
507
506
508
510
507
507
511
512
508
509
511
511
507
507
509
507
504
505
508
505
503
505
508
504
503
503
505
504
515
553
608
653
674
651
589
536
522
523
517
506
502
502
497
495
496
498
494
493
496
497
494
495
499
499
496
498
502
501
499
502
506
503
501
503
507
504
505
509
512
509
510
515
517
514
516
520
518
513
512
513
509
506
508
510
505
503
505
506
503
504
507
508
504
505
508
507
503
505
507
505
503
505
509
506
505
507
510
506
507
510
512
507
507
510
511
507
509
513
511
508
511
515
512
510
512
517
515
515
516
518
514
514
516
516
511
511
514
512
508
510
513
510
508
510
514
510
508
511
518
526
553
602
647
656
625
571
525
509
513
515
508
501
500
502
498
496
498
501
497
496
499
501
498
499
504
504
502
504
508
507
505
507
511
509
508
511
515
513
513
516
518
514
515
519
520
516
516
517
515
509
509
510
506
502
503
506
502
500
502
504
498
497
500
502
498
498
501
501
497
498
501
500
498
500
503
500
497
499
502
498
498
501
502
498
498
501
502
498
499
503
502
499
501
505
503
502
503
505
500
499
501
502
496
495
498
498
494
494
498
498
495
496
500
498
496
498
505
509
524
560
609
638
633
592
539
505
503
509
507
499
497
500
498
493
495
499
496
495
498
501
496
496
499
501
497
498
501
502
499
500
505
505
503
504
509
507
506
509
513
509
508
511
515
510
509
511
511
504
503
503
501
496
497
499
496
492
494
496
492
490
493
495
491
490
493
494
490
490
493
493
488
489
493
491
488
490
494
492
490
493
496
493
492
494
496
491
493
497
498
494
496
501
502
499
500
503
501
498
500
502
496
494
495
497
492
492
495
496
492
493
496
497
492
494
502
515
546
598
642
644
606
552
517
504
504
503
498
489
488
490
489
484
485
488
488
485
487
491
489
487
491
494
492
492
495
498
495
496
499
502
499
500
504
504
502
504
508
506
505
507
511
508
506
507
508
502
502
504
503
498
498
500
500
496
498
502
500
497
499
503
499
496
498
500
496
495
498
500
496
497
501
502
498
499
503
502
499
500
505
503
500
501
504
501
500
504
506
502
504
508
509
506
505
508
507
503
504
508
505
501
503
506
503
501
504
507
503
503
506
505
499
502
516
549
598
647
667
642
581
536
523
519
513
508
505
498
496
498
498
493
492
495
496
492
493
497
496
493
496
500
498
496
499
502
499
500
503
507
503
504
507
509
506
507
511
511
507
508
512
510
506
507
508
502
500
501
503
498
497
498
499
495
495
498
498
495
496
499
497
494
496
500
497
495
498
501
497
496
498
501
497
497
500
503
499
499
503
502
500
502
504
501
499
502
505
502
500
502
507
505
505
508
509
504
505
509
508
503
502
505
502
500
502
504
501
500
502
504
501
499
500
502
505
532
587
642
669
659
609
549
522
520
519
509
500
498
499
493
491
493
495
492
492
495
497
494
495
499
499
496
498
502
501
498
501
505
502
501
504
507
503
503
507
508
505
506
510
511
508
509
512
510
505
507
508
504
501
502
504
500
500
502
503
499
499
503
506
502
503
506
507
504
506
509
507
505
508
512
509
508
510
513
508
507
511
511
506
507
511
511
508
510
515
513
511
514
518
517
516
518
522
520
521
524
526
521
522
525
525
519
519
522
520
516
518
522
520
519
520
523
519
518
517
520
521
536
576
628
665
671
634
569
527
522
527
522
514
512
511
507
504
507
509
505
505
508
510
506
507
511
511
508
509
513
512
510
513
517
514
512
515
519
515
516
520
521
517
517
521
523
520
521
524
522
517
516
518
514
510
511
514
509
506
508
511
506
506
508
509
504
505
508
507
504
506
509
506
503
506
509
505
503
506
508
504
504
506
507
504
505
509
509
504
505
509
509
506
508
512
509
508
511
514
508
506
508
510
504
504
506
505
500
501
504
503
500
502
506
504
502
504
506
503
507
521
554
597
636
649
617
555
512
506
508
504
501
500
496
492
493
495
493
491
493
496
492
492
495
497
494
496
501
501
498
499
503
503
500
503
507
505
503
506
510
506
506
509
511
507
508
511
511
505
503
505
501
496
496
498
496
493
495
498
495
493
495
497
493
493
497
497
493
493
496
496
492
494
497
496
493
495
498
496
494
496
500
496
496
499
501
497
497
499
499
496
498
503
502
499
503
507
506
504
506
508
504
503
504
506
500
499
501
503
499
500
504
504
500
502
505
501
500
507
524
550
594
636
643
602
545
510
505
503
502
502
498
492
491
494
492
489
491
495
493
491
492
496
493
493
496
498
494
495
499
501
497
498
501
502
499
502
505
504
503
505
508
504
503
506
508
503
501
502
500
495
494
497
495
491
491
494
492
490
491
495
492
491
492
495
491
492
494
496
493
494
497
497
494
495
499
499
497
499
503
500
498
501
504
500
499
502
504
499
500
504
505
502
502
507
507
505
507
511
509
505
507
509
505
502
503
506
502
502
505
506
503
504
508
508
502
503
509
517
545
598
647
658
630
578
535
517
516
515
510
500
497
497
497
493
494
497
496
492
493
496
494
492
495
498
496
495
499
501
498
499
502
504
500
502
505
506
504
506
510
508
507
510
514
510
509
510
511
506
504
505
505
499
498
500
500
495
496
499
497
494
496
499
498
496
499
501
498
498
500
502
499
498
500
500
498
499
503
502
500
502
505
504
502
504
506
503
502
505
508
506
506
508
511
510
509
511
512
509
510
513
510
507
508
511
508
507
509
511
507
506
509
511
506
505
509
515
524
557
610
655
663
630
572
526
515
518
519
509
504
504
505
499
499
501
502
499
501
504
504
501
503
506
505
504
507
509
506
505
509
512
509
510
514
517
515
516
521
521
517
519
523
522
520
521
523
518
514
514
515
508
505
507
509
504
503
507
507
502
503
506
505
502
504
507
504
502
505
507
503
503
505
507
502
502
506
507
503
503
507
507
503
504
507
506
504
507
512
509
509
511
515
512
513
515
516
511
510
512
511
506
506
510
508
505
507
511
509
506
509
512
507
506
512
522
537
576
623
649
633
587
537
511
506
510
512
506
499
499
502
498
498
501
504
500
501
504
506
503
505
508
508
504
506
510
508
505
508
511
508
506
509
513
509
509
513
515
511
512
516
516
512
513
514
511
505
505
506
501
497
499
501
496
495
497
498
493
492
495
496
492
493
496
495
491
492
495
493
491
494
497
492
491
493
495
491
490
493
495
490
491
495
495
491
492
495
492
491
495
500
497
495
497
501
498
497
499
502
497
497
500
500
497
498
502
501
498
501
503
496
494
501
531
585
647
693
688
623
553
521
512
500
491
486
479
471
470
472
468
464
466
470
467
467
471
475
471
472
477
479
475
476
479
479
475
477
481
480
476
478
482
479
478
481
485
482
482
486
489
486
486
490
491
486
487
489
488
483
483
484
481
478
479
482
478
476
478
480
476
476
479
481
478
479
483
483
481
483
487
486
484
486
490
487
486
489
493
491
493
496
499
496
499
505
506
503
505
509
507
504
505
507
504
504
507
510
506
506
510
513
509
510
514
513
509
516
532
563
612
663
684
650
586
540
530
527
525
523
522
515
513
515
516
512
513
517
518
514
518
523
521
520
524
527
525
524
527
530
527
527
530
533
530
532
537
538
535
537
540
539
537
540
545
542
538
538
539
534
532
533
533
528
528
531
532
528
528
532
530
527
528
532
530
527
529
532
529
527
530
531
526
526
528
529
524
524
527
527
524
526
529
529
526
528
531
527
525
529
533
528
527
529
530
525
524
526
525
520
520
524
523
519
520
523
521
517
519
521
516
514
519
530
551
597
648
675
653
599
549
528
523
523
520
513
505
505
507
502
500
502
504
500
500
503
504
500
501
504
504
501
503
505
504
502
505
508
505
503
506
509
506
506
508
509
506
506
511
512
508
509
510
507
502
503
506
501
497
499
501
496
495
497
499
495
495
498
499
495
496
500
499
496
498
501
498
495
496
500
496
494
496
497
493
492
495
496
492
493
497
498
495
496
499
497
495
497
499
495
493
494
496
491
488
489
490
486
486
490
490
486
487
492
491
487
487
488
487
492
519
571
623
660
655
603
533
504
503
501
491
485
483
480
476
477
479
477
475
477
481
478
478
481
483
479
479
482
485
482
482
486
488
485
486
491
492
4949349351¯497
501
501
503
503
504
504
503
502
501
500
499
500
500
500
501
502
503
506
502
502
507
509
505
505
507
505
501
502
504
501
498
499
501
497
495
498
501
498
498
502
504
500
501
505
505
500
502
505
504
500
501
504
501
499
501
504
501
502
505
508
505
507
511
513
509
510
513
511
508
509
512
509
506
508
511
507
507
510
512
507
507
510
513
507
502
503
507
533
594
661
701
693
637
574
542
532
527
519
506
500
500
499
492
491
493
492
488
489
492
490
488
489
493
489
486
488
490
485
483
484
485
480
479
482
482
477
478
481
480
478
482
488
487
487
491
496
494
493
496
498
495
495
498
499
494
494
497
497
493
494
497
495
492
495
499
497
496
500
504
501
503
507
511
507
507
509
510
508
510
515
515
513
517
521
520
517
520
523
519
517
519
519
514
513
516
516
511
512
515
513
509
509
512
505
498
499
510
543
604
667
695
658
587
538
524
517
512
508
503
495
494
497
494
490
491
494
490
488
490
492
488
488
491
493
489
489
492
492
488
489
492
491
488
490
494
490
487
489
492
488
488
491
494
489
490
493
494
491
492
495
495
491
493
497
496
494
497
501
499
498
501
503
500
500
503
505
500
501
505
506
503
505
509
508
506
508
512
509
506
509
512
509
510
514
516
511
511
514
513
508
508
510
509
505
505
509
507
504
507
511
509
509
513
513
505
505
516
548
602
661
693
668
599
544
528
525
519
515
511
505
500
501
503
499
497
500
502
499
500
503
504
502
505
510
509
508
511
515
514
513
515
519
517
518
520
523
521
521
524
526
523
524
526
525
520
520
522
519
515
515
516
512
511
513
514
510
510
512
513
508
508
511
512
508
508
511
510
509
511
515
511
509
511
513
510
510
512
514
511
512
515
515
512
513
516
514
510
512
514
512
509
510
512
508
507
509
510
506
506
508
509
504
504
506
502
498
503
525
569
624
668
671
618
551
520
517
512
506
501
499
494
492
494
493
488
489
492
490
488
490
493
492
490
494
496
493
493
496
498
495
495
497
499
496
497
501
500
498
499
503
502
501
504
508
506
504
505
507
503
502
504
505
501
502
505
505
503
504
507
507
505
507
511
509
506
5‡494
497
498
499
499
499
498
497
496
495
495
495
495
496
497
497
499
501
503
500
502
507
507
505
508
511
508
504
506
508
504
5‡498
500
501
502
502
503
504
505
504
504
503
502
500
499
499
498
498
497
501
503
515
558
618
660
668
635
575
531
520
520
515
503
497
496
496
491
491
494
494
490
490
493
492
489
491
495
491
490
492
495
491
491
494
495
491
492
496
496
493
495
500
499
496
499
502
501
499
500
502
496
494
495
495
490
489
490
491
486
487
489
489
486
489
492
489
486
488
491
488
487
490
492
489
490
493
495
490
490
494
495
492
494
498
497
494
496
500
498
497
500
503
501
501
503
507
505
505
508
509
505
505
508
507
503
504
507
505
502
504
506
503
501
504
506
501
498
500
505
518
561
622
666
672
633
572
532
520
519
516
506
499
497
498
494
493
495
497
493
494
498
499
495
496
499
498
496
499
503
502
499
502
505
502
501
503
507
503
503
507
508
504
505
509
510
507
508
511
507
503
503
505
500
499
500
502
497
497
500
502
498
499
503
503
500
501
504
503
500
501
505
503
502
503
506
502
502
505
507
503
504
507
508
504
504
508
507
505
507
510
508
507
509
513
510
508
509
511
507
506
508
507
503
505
508
506
503
505
508
506
503
504
505
505
511
536
585
631
661
652
601
537
512
513
512
503
499
499
495
491
492
495
494
492
494
497
494
495
498
500
497
498
502
503
499
501
505
505
502
503
507
506
504
507
511
508
507
509
513
508
508
511
512
506
505
507
504
499
499
501
499
495
497
500
497
495
497
500
497
496
499
501
497
497
501
501
497
498
502
502
500
502
505
502
499
501
504
501
499
502
505
501
500
503
505
501
503
507
507
505
507
511
509
505
507
509
506
504
505
507
502
501
503
505
501
501
504
505
502
502
503
502
503
515
548
595
642
667
645
581
529
517
516
507
501
498
495
489
489
491
490
487
489
492
490
488
491
494
491
490
493
496
492
492
496
498
494
495
499
500
497
499
503
502
500
503
506
504
503
506
509
505
503
504
505
500
500
502
502
497
498
501
501
498
499
503
501
498
500
503
500
499
502
504
501
502
505
506
502
503
507
506
502
505
510
508
505
507
511
507
506
509
512
508
507
510
512
509
511
515
515
511
513
518
517
514
516
520
516
513
514
516
511
510
512
513
509
510
514
515
511
511
514
513
509
513
527
550
596
650
681
658
598
546
529
524
521
518
513
505
504
506
505
500
501
505
503
500
501
506
503
501
502
506
505
504
507
509
506
507
511
512
508
510
514
514
511
513
516
514
512
514
518
515
513
514
514
508
505
506
506
500
500
502
501
498
499
502
500
497
499
501
498
498
500
502
498
498
500
502
498
499
502
503
498
499
502
501
498
499
501
498
497
499
501
497
496
499
500
497
498
501
502
498
501
505
504
500
501
504
501
498
500
502
497
495
497
499
495
496
499
500
496
496
500
499
496
501
517
546
591
636
651
619
562
521
513
508
503
500
496
489
487
490
490
486
487
491
490
487
489
492
490
489
492
496
493
493
496
499
496
496
499
500
497
499
503
504
501
503
507
506
505
507
511
509
507
508
509
502
500
502
503
498
498
500
499
494
495
498
498
495
497
500
497
495
497
500
496
495
497
498
494
495
498
499
495
495
499
499
496
498
501
499
496
498
501
497
497
500
503
500
501
504
505
502
504
509
508
503
504
508
506
503
504
505
501
499
501
505
502
502
504
505
501
501
504
501
498
503
524
566
618
657
661
617
557
526
522
515
507
503
501
493
491
493
494
489
489
493
493
490
492
496
494
493
496
499
496
496
499
501
498
498
500
502
499
500
504
504
501
503
506
506
504
507
512
510
508
509
510
505
503
505
506
500
499
502
502
497
499
502
501
498
499
502
499
497
500
503
500
499
501
503
499
499
502
504
500
501
505
505
500
502
506
505
502
504
507
505
503
506
509
506
506
509
511
508
511
516
516
512
513
516
513
509
510
513
510
507
509
511
507
505
507
508
503
503
506
504
498
500
514
546
597
651
677
650
585
536
522
516
510
506
503
495
493
494
494
489
491
494
494
490
491
495
494
492
495
499
496
494
497
501
498
497
500
502
499
500
503
505
502
503
507
506
503
505
510
508
505
507
510
505
504
505
505
500
500
502
503
499
499
503
503
499
500
504
503
501
503
506
502
500
503
506
503
503
506
507
503
505
509
510
506
507
511
510
507
509
512
509
506
508
511
508
507
511
513
510
511
516
516
512
513
516
514
510
510
513
509
506
508
511
507
505
508
510
506
506
509
507
502
505
518
547
597
652
683
659
594
540
525
520
514
509
505
497
495
497
497
492
493
496
497
493
495
498
498
496
499
503
501
498
500
504
501
500
503
505
502
504
507
508
505
507
511
511
508
510
515
515
511
511
513
509
506
507
509
504
503
505
507
504
504
507
508
504
506
510
508
507
509
513
511
509
511
515
510
509
511
513
509
509
513
514
510
512
515
515
511
513
517
515
512
516
520
517
517
519
522
519
519
522
523
519
519
522
521
516
516
519
517
514
514
518
514
511
513
515
510
508
511
518
526
555
605
650
657
623
568
525
512
515
517
510
502
502
503
499
497
499
501
497
497
499
501
497
497
500
500
497
500
503
501
498
501
504
501
500
503
506
502
501
504
507
503
504
508
508
503
503
505
502
497
497
498
493
490
491
493
489
489
491
492
488
489
492
494
490
491
494
494
490
491
494
491
488
491
494
491
490
492
495
492
492
495
496
493
494
498
499
496
498
503
501
499
501
505
503
502
502
504
500
500
502
501
496
495
498
499
495
495
500
499
496
498
500
497
494
498
509
527
567
620
652
638
589
535
510
505
505
502
495
489
489
491
489
486
487
490
488
499
501
500
499
498
497
497
498
498
499
500
500
501
502
503
504
504
504
501
503
506
505
502
505
510
508
506
508
512
509
508
510
512
508
508
512
512
506
505
507
505
499
500
502
498
495
497
499
495
493
494
496
492
493
494
495
490
491
495
496
493
494
497
496
494
496
500
498
496
498
501
497
496
498
499
495
496
499
501
498
498
502
503
500
502
504
501
499
500
502
498
495
496
498
493
494
498
500
495
496
500
500
496
495
500
504
518
559
612
646
644
605
551
514
508
510
506
496
492
492
491
487
488
492
490
486
488
490
489
487
491
495
492
492
496
499
496
497
500
501
498
499
504
503
499
501
505
504
502
504
508
505
504
506
507
501
499
500
499
494
493
496
495
491
493
496
495
494
496
499
496
495
498
502
498
497
500
503
500
500
503
503
499
501
504
503
501
503
507
504
501
504
508
504
504
507
510
507
508
511
512
508
509
514
513
509
510
514
512
509
510
513
508
506
508
510
507
506
509
511
508
509
510
510
510
523
558
610
655
677
653
590
539
527
527
519
510
507
505
500
498
500
500
496
497
500
499
495
497
500
498
496
500
503
501
501
504
508
504
504
507
509
505
507
511
511
508
509
514
513
510
513
515
511
508
510
511
505
503
504
505
500
500
503
504
499
500
504
503
500
501
505
501
498
500
503
500
499
501
504
500
500
504
506
502
502
505
504
501
504
507
505
502
504
507
505
505
507
511
508
508
512
514
511
513
516
515
510
511
514
511
507
508
511
508
506
507
509
506
505
508
510
506
507
508
506
503
513
544
595
645
677
663
600
541
522
523
515
506
502
500
493
491
493
493
488
489
492
490
487
488
491
490
488
490
493
489
488
490
494
492
491
494
497
493
493
497
498
495
497
502
503
500
502
505
502
499
500
501
496
494
496
497
492
492
495
496
491
491
494
495
491
492
497
495
492
494
498
495
494
496
498
495
494
497
499
495
495
498
499
496
498
501
500
497
498
502
501
499
501
504
501
501
504
507
503
506
510
511
507
507
512
511
507
508
511
508
505
507
509
505
504
507
509
505
504
508
508
500
503
513
537
584
644
689
681
622
559
534
526
520
513
509
501
498
499
499
494
493
496
496
491
492
495
495
493
495
499
496
495
498
501
497
497
500
503
499
499
504
504
500
501
504
504
501
504
509
508
505
506
509
505
502
504
506
502
502
504
506
502
502
505
505
501
502
506
505
502
504
508
505
503
505
508
504
502
505
508
505
505
508
510
506
508
511
511
508
508
511
509
506
508
511
508
507
510
513
509
508
511
513
510
511
514
514
511
513
517
514
509
510
512
508
507
508
510
506
506
509
511
507
506
507
511
515
540
592
644
672
658
603
542
518
518
519
509
503
500
499
494
494
497
498
494
495
499
499
497
500
504
503
501
503
506
502
501
505
508
505
505
507
510
507
509
513
514
512
513
516
516
513
515
517
514
510
510
512
506
504
505
505
500
501
504
504
499
500
503
503
499
502
506
503
500
502
505
502
500
502
505
500
499
502
504
501
502
505
505
502
503
507
506
502
504
509
506
506
509
511
507
507
511
514
510
511
514
514
509
509
512
510
506
507
510
508
504
506
508
504
502
504
506
500
502
511
528
562
612
652
654
607
549
518
510
508
507
506
499
495
496
498
495
494
497
498
493
493
497
499
495
497
502
501
499
500
504
502
502
505
508
506
505
508
510
507
508
512
513
509
511
515
514
510
510
512
508
503
504
505
501
499
502
504
499
498
501
502
498
499
502
503
500
501
505
503
500
501
504
501
500
503
506
502
502
505
506
502
502
504
505
500
501
505
504
500
502
505
504
502
504
507
505
505
507
508
504
503
506
506
501
501
503
502
498
500
503
501
499
502
506
503
501
501
506
510
528
570
622
651
644
599
542
511
510
513
507
498
496
497
494
492
493
496
491
489
491
493
488
489
493
495
491
492
496
496
493
496
500
499
497
499
503
500
500
503
506
502
503
507
509
505
506
509
507
502
500
502
499
495
495
498
495
494
495
497
493
493
497
499
494
494
498
499
495
497
501
499
496
497
501
499
496
498
502
498
498
500
503
498
498
501
502
499
500
503
503
500
502
507
506
503
505
509
508
506
507
508
503
502
504
504
499
499
503
503
498
499
504
503
499
501
505
501
497
502
512
534
581
638
673
659
605
547
522
512
508
504
497
489
488
490
488
484
485
488
484
484
486
488
484
485
489
491
488
489
494
495
492
494
497
496
493
496
499
497
496
499
502
500
501
505
507
505
506
508
508
503
503
504
502
498
498
502
499
497
500
504
499
498
501
504
500
501
503
505
500
500
504
504
501
502
506
505
502
503
507
503
501
503
506
503
502
504
506
502
502
506
506
503
504
507
506
505
509
512
508
505
508
510
505
503
505
506
501
501
504
503
500
501
505
505
502
501
501
498
500
518
562
616
662
678
642
571
528
520
518
507
499
497
493
487
487
490
488
485
486
488
486
484
487
490
488
488
492
495
492
492
495
496
492
493
496
496
494
496
500
499
498
501
506
504
505
508
511
507
506
508
508
502
501
503
502
499
500
504
503
500
502
506
503
502
505
508
503
502
505
507
503
504
507
507
503
504
508
508
506
508
512
509
507
510
513
510
509
512
515
511
512
515
516
513
516
520
520
516
517
520
518
515
517
518
514
512
514
517
513
511
513
515
511
511
514
513
511
520
541
580
627
664
666
617
554
524
523
519
515
513
511
505
504
506
507
504
506
510
510
506
508
513
512
509
512
516
513
512
515
518
514
514
518
520
516
517
521
522
519
520
524
522
520
521
524
520
516
516
516
509
506
506
507
503
503
506
506
502
502
505
504
500
502
505
502
500
503
506
503
501
503
506
502
503
506
507
503
504
507
506
502
503
506
502
499
502
506
503
502
504
506
502
502
506
507
502
501
504
503
498
498
501
499
496
498
501
497
495
497
500
496
495
498
499
497
505
525
561
606
642
645
602
542
512
512
511
504
501
501
496
493
495
497
493
492
495
496
493
495
499
499
495
497
502
501
499
502
507
506
504
507
511
508
509
512
515
511
511
515
517
514
516
519
519
514
514
515
509
505
505
508
504
501
501
502
498
498
501
502
497
498
502
501
497
498
501
500
497
499
502
500
498
500
502
498
498
500
502
498
498
501
502
498
500
504
504
501
503
506
505
504
507
510
507
506
509
510
504
503
505
505
501
502
505
504
501
503
506
504
501
500
504
506
520
557
611
649
655
619
562
521
513
516
511
501
497
498
494
490
492
495
491
489
492
495
492
491
494
497
492
493
497
498
495
497
501
502
499
502
506
505
504
507
511
508
507
509
511
508
508
511
510
504
502
505
503
498
499
502
500
496
498
501
497
496
498
500
496
496
498
499
496
496
498
499
495
497
501
500
496
497
500
499
497
499
502
498
497
499
501
498
498
502
504
501
502
507
507
505
507
510
507
505
507
510
507
504
505
507
505
504
506
507
503
503
506
506
502
503
505
504
506
525
571
625
666
674
633
564
526
521
519
509
502
500
498
493
493
495
494
491
492
496
493
491
493
496
493
493
495
498
495
496
500
501
497
499
503
504
500
501
506
506
504
506
510
507
507
509
512
506
504
506
506
501
501
503
502
498
499
502
500
498
499
503
500
499
502
505
501
500
503
505
501
500
503
505
502
502
506
506
503
504
507
505
503
504
506
503
502
505
507
504
504
507
509
505
505
508
510
508
510
513
511
508
510
512
508
505
506
509
505
505
509
510
506
507
510
511
507
506
509
511
519
550
606
656
679
656
597
539
521
521
518
507
502
501
500
496
496
499
497
493
495
497
496
493
495
498
496
495
496
500
497
497
500
502
498
499
502
504
501
502
506
506
503
506
509
507
506
509
511
505
503
505
506
500
499
502
503
498
498
501
501
497
499
502
499
497
499
501
498
496
498
500
496
495
499
501
496
496
500
500
497
498
502
501
497
498
502
499
497
499
502
498
497
500
502
499
500
503
505
503
505
508
507
504
506
509
506
503
504
506
502
501
503
505
501
500
502
504
501
501
501
501
501
519
563
617
659
672
635
566
523
515
514
502
495
492
491
484
484
486
487
484
485
489
488
485
487
491
489
487
489
493
490
489
492
494
490
491
495
496
492
494
498
497
494
496
499
498
497
499
503
499
496
498
500
495
493
495
496
492
492
496
496
491
491
494
492
489
490
494
491
488
490
493
490
490
493
495
491
491
494
496
493
493
496
496
492
493
497
494
492
494
496
493
492
494
497
494
494
498
500
496
499
504
504
501
501
506
504
501
502
505
502
501
503
505
501
501
505
507
503
504
507
505
500
504
517
541
587
641
673
651
589
535
520
517
514
510
506
497
496
498
499
494
495
499
500
498
500
504
503
501
504
508
506
504
506
509
506
507
511
514
511
512
516
516
514
516
520
518
516
518
522
520
517
518
519
514
510
512
513
508
507
510
510
507
507
510
509
506
508
511
509
507
509
511
508
507
509
511
508
508
511
513
509
510
514
514
511
513
517
515
512
514
517
514
512
515
518
515
516
518
520
516
517
521
521
517
517
520
518
515
515
517
513
510
512
516
512
511
513
516
510
510
512
514
515
527
558
605
644
659
633
573
524
513
517
514
508
506
506
501
500
502
504
500
501
504
504
500
502
507
506
503
504
509
506
505
508
511
507
507
511
514
509
509
513
514
510
511
515
514
511
512
515
511
506
506
507
502
499
501
501
496
495
498
499
495
495
499
499
495
497
500
499
497
499
503
500
498
501
505
501
502
505
507
503
504
507
508
504
505
509
508
506
508
512
510
509
513
517
513
513
517
521
517
516
519
520
516
516
518
517
512
514
517
515
512
514
517
514
513
516
518
511
512
520
537
570
622
666
671
626
567
534
527
523
520
517
510
506
506
508
504
502
503
506
502
503
507
508
505
507
510
510
507
510
513
511
510
512
516
513
512
515
518
515
516
519
520
517
518
522
522
516
516
517
513
508
507
509
506
503
504
506
503
502
505
507
503
503
507
507
503
504
507
505
502
504
509
507
504
506
509
505
503
506
508
504
506
509
510
505
506
509
508
505
506
509
508
506
508
512
510
510
513
514
510
509
511
512
507
506
508
507
503
504
507
507
503
504
506
503
501
502
505
507
520
557
608
643
653
623
564
516
506
511
510
501
498
499
495
491
493
496
492
491
495
498
496
497
500
502
498
499
502
502
499
501
506
506
504
506
511
508
507
510
514
511
511
515
518
514
514
517
516
509
508
509
507
502
503
506
503
501
502
504
500
499
501
503
498
497
501
503
500
501
504
505
501
502
506
505
502
504
507
505
504
507
510
506
505
507
509
504
504
506
507
504
505
508
508
505
508
513
511
508
509
512
508
506
508
509
503
502
505
505
502
503
506
505
501
502
505
502
501
509
525
550
595
636
649
617
562
520
508
506
507
506
501
495
495
497
496
493
496
498
496
495
497
500
497
497
499
501
498
499
503
505
502
504
508
508
506
508
513
510
508
510
513
510
509
512
514
509
507
507
506
500
499
501
500
495
496
498
495
492
494
497
494
493
495
498
495
494
496
498
493
492
496
496
492
493
496
495
492
494
497
494
493
495
498
495
495
497
499
495
495
498
500
496
496
500
500
497
499
501
498
496
498
500
495
492
495
497
493
493
496
498
494
495
498
498
494
495
497
499
505
529
576
621
646
633
584
527
506
508
508
499
494
493
492
487
487
491
490
488
490
494
492
489
491
494
491
490
493
496
494
495
499
501
498
499
504
504
501
504
508
507
504
507
511
510
509
511
512
506
503
504
502
496
496
497
496
491
492
495
493
490
492
496
493
491
493
495
492
491
494
495
492
493
496
496
493
494
498
498
495
497
500
498
495
496
499
496
496
499
501
497
497
501
503
499
498
502
504
501
502
503
502
500
501
504
499
496
497
500
496
496
500
502
498
499
502
503
500
500
504
508
518
552
604
642
650
620
565
518
505
508
508
498
493
493
492
487
487
491
491
488
490
494
493
491
494
498
496
495
498
501
498
498
503
506
504
505
509
510
507
509
514
512
509
513
517
517
515
515
517
511
509
510
510
504
504
506
506
501
501
504
504
500
501
504
503
500
502
505
501
500
502
504
500
500
502
504
499
501
505
505
502
504
507
505
501
504
507
505
504
505
506
503
503
506
509
504
506
511
512
507
508
510
509
504
505
507
505
502
503
506
502
500
502
504
500
500
503
503
497
498
506
519
548
600
647
659
623
567
528
515
512
510
506
497
494
494
494
489
489
490
490
486
487
491
490
488
491
494
493
491
493
498
495
494
498
501
498
499
503
504
502
503
508
507
504
506
510
509
506
507
508
503
499
500
500
496
495
497
499
495
495
498
498
494
496
499
498
495
496
500
498
498
500
502
499
499
502
504
500
500
503
503
499
501
505
504
501
502
506
504
502
504
508
506
506
509
511
507
509
513
514
509
510
513
513
507
508
511
508
506
507
510
508
506
508
510
507
506
508
507
503
506
521
556
606
658
685
660
595
545
531
525
517
511
508
500
497
498
499
493
493
496
498
494
494
498
497
494
495
499
497
495
497
501
500
499
502
505
501
501
504
505
501
502
506
507
504
506
511
509
505
507
509
505
501
503
505
500
499
501
503
499
499
502
503
499
499
502
502
498
500
503
501
498
501
504
501
499
501
504
500
500
502
503
499
500
503
503
499
501
504
502
499
501
505
503
503
505
508
505
507
510
512
506
506
509
510
505
506
508
507
504
506
509
506
504
506
509
505
503
505
505
501
506
522
561
610
655
671
637
572
529
522
519
511
506
504
498
495
497
499
495
493
496
498
493
493
496
496
493
495
499
498
496
499
503
501
499
502
506
503
503
507
510
507
507
511
513
510
511
515
514
509
509
510
506
502
502
504
501
500
502
504
500
500
503
504
500
501
505
503
499
501
505
504
501
502
506
503
501
503
505
501
500
503
505
500
501
505
505
501
502
506
506
503
506
510
507
505
508
513
510
509
511
513
509
508
509
510
505
505
509
508
504
505
509
506
504
506
509
505
503
509
521
541
586
632
654
631
579
531
511
507
509
507
500
493
493
495
492
489
491
494
491
491
494
496
493
493
497
499
495
496
500
499
496
498
502
500
498
501
505
502
500
503
506
503
503
508
510
505
504
506
503
497
498
500
496
492
493
496
492
489
490
492
487
486
489
491
487
487
490
490
486
486
490
489
486
488
491
489
486
489
493
489
488
491
494
490
489
493
494
491
493
498
497
494
497
501
500
496
499
504
500
498
499
501
495
494
497
499
495
495
499
500
496
498
502
498
493
498
512
536
582
635
663
637
579
530
515
509
506
503
498
491
490
494
493
489
491
495
495
492
495
499
496
496
499
503
499
499
504
506
502
504
509
510
506
508
513
511
508
511
516
513
512
516
520
515
513
514
514
508
506
508
507
502
502
505
503
499
501
505
503
500
502
506
502
501
504
506
502
503
505
507
503
504
508
507
504
505
509
508
506
508
512
509
507
509
512
509
510
513
514
511
513
518
517
512
514
517
514
509
510
513
509
507
509
511
507
506
508
510
505
505
507
506
504
514
544
594
644
678
667
609
548
526
527
519
510
505
503
497
495
497
497
493
494
497
497
494
495
499
499
496
498
502
499
497
500
503
500
500
503
506
503
504
509
511
508
510
515
515
513
516
520
517
513
513
514
509
506
508
509
505
504
506
508
505
505
510
509
506
507
511
510
506
508
512
509
509
512
514
510
509
512
514
510
510
513
513
510
511
515
514
512
513
517
515
514
518
521
517
515
517
519
513
513
515
515
510
511
514
513
511
513
517
516
514
516
518
513
514
525
554
600
652
683
664
599
544
529
526
519
513
510
505
501
501
504
500
499
502
506
502
502
505
508
505
506
510
511
508
510
514
513
510
513
518
516
514
517
519
516
515
518
521
518
518
521
522
517
516
517
514
508
508
510
507
503
505
508
504
503
505
507
504
503
505
506
501
501
505
505
501
502
505
503
500
502
505
502
500
502
506
503
504
508
510
506
506
509
512
508
509
511
511
507
509
510
507
503
504
507
503
501
503
506
501
501
504
507
502
500
506
514
530
574
625
650
637
590
538
508
505
507
507
500
495
495
496
491
491
494
495
491
493
497
497
494
496
499
497
496
499
504
501
500
503
506
502
503
507
509
506
507
510
510
506
508
513
511
508
508
509
505
501
501
501
497
496
497
497
493
494
496
495
492
493
495
494
490
491
493
491
490
492
495
493
493
496
499
496
497
499
499
497
499
502
502
500
501
505
504
503
505
507
503
502
504
505
500
498
500
501
497
498
502
502
497
499
503
502
499
498
501
502
511
544
595
635
652
630
576
523
508
511
510
500
496
497
494
490
491
494
492
489
490
493
490
489
491
493
490
490
494
495
491
493
497
498
495
496
500
499
499
501
504
501
500
502
504
500
500
503
503
497
497
499
498
492
493
497
494
490
491
494
492
490
492
496
493
493
495
498
494
495
498
499
495
496
500
499
496
497
501
499
497
500
504
502
501
502
505
503
504
506
507
503
502
504
503
498
498
500
498
495
496
499
498
496
498
500
498
497
496
495
494
504
536
588
638
667
651
592
533
515
516
511
502
497
496
492
489
490
491
486
486
489
490
487
488
493
493
491
493
497
496
494
497
500
499
498
500
504
501
501
504
506
502
502
506
507
504
505
509
506
501
502
503
500
497
498
500
496
495
497
499
495
495
498
498
494
495
499
499
497
499
503
501
498
500
503
500
498
501
505
501
501
503
506
503
504
507
509
507
509
513
510
507
509
511
506
503
505
506
502
501
503
504
501
502
505
505
501
502
503
500
498
508
540
591
644
678
663
600
541
522
521
512
505
502
499
493
492
495
494
489
490
494
492
489
491
494
491
490
493
497
494
494
498
500
496
496
500
502
499
501
505
504
502
504
509
507
505
508
510
505
503
505
505
500
500
502
502
497
498
502
502
498
500
504
502
499
502
505
502
501
504
507
504
503
505
507
503
503
507
507
504
506
509
508
505
507
511
510
508
511
515
513
513
516
518
514
514
518
519
514
514
517
516
513
513
516
514
512
514
518
514
512
512
516
518
537
586
641
675
674
628
563
526
522
524
518
509
506
507
502
500
502
504
500
500
503
505
501
502
506
508
504
506
511
510
507
509
514
511
509
512
515
512
512
516
519
515
515
519
521
517
517
520
517
512
511
513
510
506
508
510
506
504
506
509
505
504
506
508
504
504
507
507
503
505
508
507
504
506
508
505
503
506
508
504
503
506
508
505
505
508
510
505
506
512
514
511
511
514
511
509
511
513
507
505
508
509
505
504
507
509
505
504
508
508
503
505
513
523
550
601
645
654
622
568
526
509
509
510
509
499
497
499
498
493
494
497
495
493
496
500
497
496
498
501
498
498
501
503
500
502
507
509
505
506
511
512
508
510
514
513
511
513
516
512
510
511
511
505
502
502
502
496
496
499
498
494
495
498
496
494
494
498
496
494
495
497
494
493
496
498
494
495
499
499
495
496
499
499
495
497
500
499
497
499
503
500
499
502
506
503
503
504
505
501
501
504
503
498
498
500
498
496
498
502
499
497
500
503
499
497
502
511
529
575
628
658
644
594
540
512
505
505
504
496
489
488
490
486
485
487
490
486
487
490
492
488
490
494
494
491
492
497
496
494
497
500
498
498
501
504
501
502
505
507
503
504
508
509
505
505
506
503
498
498
500
496
492
494
497
493
492
495
497
493
494
497
499
495
496
499
498
495
496
499
497
495
497
500
497
496
498
501
497
498
501
502
499
500
503
503
499
500
504
504
502
503
507
505
504
506
508
503
502
504
506
501
500
503
503
499
499
503
503
500
502
505
503
501
501
504
505
521
563
620
659
667
630
570
528
520
521
514
503
499
499
495
491
493
496
492
491
493
495
491
491
495
496
492
493
498
499
496
497
500
500
498
500
504
503
502
504
508
505
505
508
510
506
507
509
509
503
503
504
502
497
498
501
499
497
498
502
498
496
498
500
495
495
499
501
498
499
502
502
499
501
505
503
500
503
506
503
500
502
504
500
501
504
506
502
502
505
506
502
504
508
508
505
507
513
511
509
512
514
510
509
511
513
508
507
510
510
505
506
509
508
505
507
510
508
503
503
507
509
525
570
628
668
675
637
575
532
523
522
515
503
499
498
495
490
490
493
490
488
490
493
490
490
493
495
493
494
498
500
497
498
502
502
499
501
506
505
503
505
508
506
505
508
512
509
510
513
514
508
507
508
507
503
503
506
504
501
503
506
503
502
504
507
504
503
505
507
503
503
506
507
503
504
508
507
503
505
509
506
504
506
510
507
506
508
511
507
507
510
511
507
507
512
513
510
511
514
514
513
516
518
515
514
515
518
513
511
513
514
510
510
515
516
511
513
517
515
511
513
514
513
517
541
591
640
674
671
623
557
527
526
526
518
512
511
508
503
504
507
505
503
505
508
505
504
507
510
507
508
511
513
509
510
515
516
514
515
520
520
518
520
524
521
520
522
525
522
520
524
525
518
516
516
516
509
509
511
510
505
506
509
507
504
505
508
504
502
504
507
503
504
507
507
502
503
507
507
503
504
507
506
503
505
507
504
502
504
506
502
501
504
507
502
502
507
509
506
507
510
511
509
511
514
510
509
510
513
508
507
508
510
506
505
508
509
504
505
508
508
505
505
508
510
517
543
592
633
651
635
585
529
509
512
514
506
502
502
500
494
494
497
497
494
496
500
498
497
499
503
500
500
503
505
502
502
506
507
503
505
508
507
504
507
512
510
508
510
515
513
510
511
513
507
504
504
503
497
496
498
497
492
492
494
493
490
492
495
491
490
492
494
490
490
493
495
493
489
491
493
490
492
495
494
491
493
497
494
492
495
498
494
492
495
498
494
495
498
500
496
498
502
502
498
498
502
501
497
497
499
495
493
495
498
494
493
495
496
493
494
497
497
494
500
519
552
600
643
654
614
552
516
512
507
500
497
494
487
485
486
487
483
484
488
487
484
486
491
489
487
489
493
490
490
493
495
492
493
496
498
495
496
501
502
500
502
506
505
503
505
509
505
501
501
502
496
494
495
496
492
492
495
496
492
492
495
494
491
492
495
493
491
493
495
492
491
494
496
492
493
496
498
494
496
499
499
496
497
500
499
496
499
502
500
498
501
504
501
500
503
505
502
504
508
508
503
504
507
505
501
502
504
501
498
500
502
499
499
503
505
500
500
501
500
499
509
541
593
641
671
659
602
544
524
524
516
507
503
501
494
492
494
494
489
490
494
495
491
492
496
495
493
496
499
497
495
498
502
498
498
501
504
500
500
504
506
502
503
507
506
504
507
511
508
504
505
506
502
501
502
504
499
498
501
502
498
498
502
502
498
499
503
501
498
500
503
500
498
500
503
499
499
502
504
500
499
503
504
500
501
505
503
499
502
505
502
500
503
507
504
504
506
509
507
509
512
513
508
509
512
511
507
507
509
506
503
504
507
504
503
505
507
504
504
504
506
505
520
561
618
662
679
649
584
535
525
525
517
506
503
502
496
493
495
497
493
493
497
497
494
495
499
499
495
497
500
498
497
500
505
502
501
504
507
504
504
507
509
505
506
511
513
510
513
517
515
510
509
511
507
503
505
507
503
502
505
507
500
500
504
505
501
503
506
505
501
503
506
504
503
505
508
505
503
505
508
504
504
508
509
505
507
511
511
507
508
511
510
509
512
516
513
513
516
520
516
515
518
519
515
514
517
517
512
513
516
515
512
513
516
514
511
514
517
512
514
524
552
597
645
675
660
601
546
528
526
521
517
516
510
505
506
508
505
502
504
505
501
502
505
507
504
505
508
509
506
508
512
511
508
511
515
513
512
515
518
515
514
517
519
515
516
519
520
515
515
516
514
509
509
511
508
504
506
509
505
504
506
508
504
504
507
508
504
505
508
507
503
504
507
505
503
504
507
504
502
505
508
504
504
507
508
503
503
507
509
505
506
510
510
507
508
513
512
509
511
514
509
507
508
508
504
503
506
507
503
503
507
506
502
503
507
504
502
508
521
545
590
638
658
628
572
528
515
511
509
507
502
496
495
498
496
493
494
497
496
494
497
500
496
496
499
501
497
498
501
502
497
499
504
503
500
502
506
505
503
505
508
505
504
507
509
505
502
504
505
499
497
499
498
493
494
497
495
492
494
498
495
494
495
498
494
493
495
497
493
493
496
496
491
493
497
497
494
495
498
496
494
497
500
496
495
498
500
496
496
499
501
498
500
506
506
502
503
506
503
500
501
503
498
495
498
501
497
495
497
499
494
494
498
497
493
498
511
538
584
636
662
637
577
528
513
508
504
500
498
491
489
491
491
487
487
490
490
487
489
493
492
490
493
497
493
492
495
498
495
495
499
501
498
499
504
505
501
503
507
506
504
507
510
507
504
504
505
499
497
498
499
493
493
495
496
492
493
496
494
490
492
496
494
492
495
497
494
493
496
498
493
493
496
498
494
496
500
501
497
499
502
500
498
500
503
501
500
502
506
502
502
506
510
507
507
510
510
504
504
507
505
501
503
506
504
502
504
506
504
503
505
506
500
500
506
518
546
600
655
679
652
593
544
525
519
516
512
503
498
499
500
494
493
496
497
492
492
496
498
495
495
499
498
496
498
503
501
500
503
507
503
503
506
509
505
