734
735
735
735
738
738
739
740
739
737
733
732
731
729
728
727
724
720
717
712
705
699
695
690
685
678
672
665
656
649
643
640
637
632
629
625
619
613
607
601
595
589
583
576
573
570
568
565
564
564
565
568
572
575
578
578
578
581
580
580
579
569
554
536
525
520
516
513
512
508
503
489
477
468
465
464
466
466
466
466
469
469
471
469
466
458
456
461
468
474
478
483
486
490
493
492
489
474
462
458
458
459
461
462
464
465
465
467
467
467
469
471
472
471
471
473
472
472
474
475
474
475
477
478
478
479
480
475
468
453
439
428
420
416
412
408
405
404
401
399
397
398
398
399
400
404
407
408
412
419
422
424
428
433
436
439
441
440
439
439
439
440
440
440
444
445
448
453
459
466
474
483
490
489
486
485
486
489
500
518
533
547
543
504
450
430
449
479
500
504
501
494
487
484
484
484
484
484
486
488
490
491
493
497
499
500
503
502
503
507
511
513
514
520
522
524
526
528
531
533
535
538
540
542
544
548
552
553
556
559
559
560
563
565
565
565
565
565
564
562
562
561
560
560
561
562
558
553
541
530
522
518
516
514
512
510
510
510
510
512
514
514
516
519
522
523
525
528
529
531
534
537
538
540
541
541
540
540
540
541
541
540
541
541
539
539
540
538
536
537
535
530
524
520
515
510
506
503
500
494
485
476
466
457
452
449
446
441
441
442
443
446
451
456
460
463
466
468
468
469
472
474
477
480
486
489
492
497
501
506
511
518
524
530
534
540
545
551
556
562
567
570
571
577
582
587
592
595
596
597
598
598
597
597
598
588
574
546
520
499
482
468
458
450
447
446
449
453
458
462
469
473
477
484
502
521
538
553
542
494
442
435
459
487
507
518
524
528
530
534
536
538
541
544
546
546
548
550
549
551
554
556
555
553
553
552
549
546
545
545
545
546
550
553
553
555
557
557
557
560
564
567
571
576
577
577
577
578
578
577
577
578
575
569
559
550
540
532
528
523
520
517
516
513
511
510
509
504
494
483
475
468
463
459
456
454
450
449
447
444
440
438
435
433
433
434
435
436
438
442
445
447
449
452
453
452
452
454
455
454
456
459
460
460
459
458
458
459
460
461
462
463
466
469
471
472
475
477
479
482
485
488
491
497
503
507
509
510
506
497
489
484
477
472
469
467
464
460
459
458
456
455
454
454
453
453
456
459
461
462
464
465
465
467
470
474
478
483
488
493
496
500
505
508
510
515
521
524
528
532
536
537
539
541
542
542
544
546
546
549
551
553
555
555
559
562
563
562
562
561
558
557
557
556
557
559
559
558
556
554
555
556
555
558
559
559
558
559
563
573
587
601
614
604
560
505
489
508
534
550
556
557
561
566
568
569
569
567
564
562
563
563
560
559
554
548
541
539
537
534
531
530
530
531
532
536
534
531
529
529
528
527
528
532
533
529
531
542
548
547
539
529
502
464
428
394
360
329
304
284
265
248
231
212
189
165
147
134
129
127
129
130
133
138
145
151
156
163
172
186
206
226
240
249
261
274
281
284
287
295
326
370
427
467
499
565
658
739
811
846
891
913
938
937
934
956
944
942
949
922
908
913
915
898
915
901
908
888
905
896
918
936
942
954
947
945
945
950
946
940
956
945
943
944
948
947
938
940
945
948
951
948
949
939
944
944
949
951
942
946
939
943
948
942
946
951
952
942
937
941
944
948
946
942
912
871
850
831
818
806
791
779
772
770
767
768
768
765
763
766
753
751
738
732
730
726
716
716
718
716
711
704
695
690
693
697
694
687
673
651
640
620
610
601
595
587
576
579
588
593
599
596
548
483
443
453
484
506
512
504
496
483
483
476
470
470
469
470
469
460
453
450
452
448
450
447
443
446
445
438
430
417
409
399
387
380
374
367
364
363
365
365
369
369
366
366
372
373
369
363
357
350
339
332
324
314
303
293
286
276
259
241
227
217
208
200
187
179
172
173
171
174
179
186
195
200
206
216
223
222
201
182
167
160
157
156
155
157
159
158
157
165
172
180
182
181
168
158
148
146
144
143
144
150
157
170
179
186
181
176
175
184
194
205
215
219
215
214
216
228
244
252
264
281
302
326
355
379
397
406
420
437
455
466
475
468
458
450
448
446
440
442
453
458
467
464
459
457
451
453
458
464
473
479
480
481
482
487
500
511
525
550
565
573
581
583
581
589
592
601
600
598
594
591
588
578
571
557
543
526
508
487
466
451
438
433
438
447
450
449
414
357
303
302
328
353
363
358
352
357
371
382
388
384
380
380
385
398
404
411
410
411
404
407
416
419
424
422
426
432
438
447
443
433
421
420
421
428
436
453
473
494
507
528
540
555
565
580
593
584
564
549
544
540
549
558
562
560
552
533
537
535
525
537
529
552
591
636
676
715
761
807
841
877
910
928
937
933
937
942
931
879
842
767
697
625
573
530
490
465
434
389
349
313
283
270
314
379
433
476
520
557
596
625
642
658
664
666
669
662
664
659
656
646
632
634
635
633
634
630
616
615
609
616
624
629
643
655
657
648
631
629
633
648
663
681
680
690
696
692
687
682
674
682
676
689
695
704
715
712
702
690
671
648
636
623
614
600
585
572
561
550
533
518
498
487
489
493
499
512
513
518
514
507
505
504
499
502
501
491
487
480
481
485
476
467
455
456
467
480
499
520
538
553
550
552
555
559
544
527
513
509
501
510
518
538
558
572
562
589
655
740
817
859
888
910
931
938
947
952
940
933
938
817
718
670
670
705
716
697
722
756
789
806
817
802
802
787
797
801
797
806
789
774
762
747
727
707
673
651
625
593
572
544
522
501
480
459
439
415
395
374
354
342
330
325
323
328
334
339
336
323
313
305
310
316
321
325
325
319
305
292
288
291
299
310
317
330
346
348
363
378
400
409
418
413
404
398
391
382
374
372
369
365
361
361
372
375
378
389
405
420
420
424
437
446
447
447
461
473
480
491
504
517
530
531
541
536
541
552
556
569
569
570
568
569
577
589
604
607
614
616
612
608
605
592
579
554
540
527
508
498
476
459
452
448
453
457
464
461
451
445
433
431
418
408
398
390
380
369
358
346
324
301
277
253
231
204
173
148
128
121
136
168
197
209
198
182
173
163
157
153
148
145
145
147
151
159
174
190
198
198
197
193
189
189
191
194
198
200
208
221
236
250
278
315
349
389
416
417
381
342
350
361
348
307
261
226
199
167
138
119
105
82
50
36
25
21
13
12
8
7
6
5
4
1
2
1
0
32
88
126
150
163
172
185
196
210
218
219
219
221
226
230
234
233
239
249
262
260
250
246
248
258
265
270
271
278
289
304
319
323
324
328
339
346
351
351
350
351
354
364
374
380
381
379
380
388
398
410
415
418
418
427
437
449
462
475
495
517
528
538
537
539
543
545
538
531
529
532
536
548
557
564
570
570
572
568
560
563
566
572
577
584
587
582
581
585
591
597
603
609
614
616
617
619
621
628
637
647
646
648
646
642
646
646
652
655
665
670
676
684
689
695
701
710
715
725
734
734
735
739
745
756
766
781
783
782
774
776
770
764
751
744
735
730
731
730
731
724
726
721
711
704
691
677
661
654
645
641
636
638
641
645
643
649
649
654
667
682
702
707
711
678
623
587
593
627
656
671
678
679
677
671
669
667
666
664
674
680
685
691
694
696
692
691
692
699
708
721
731
739
738
739
745
750
758
770
786
793
804
814
820
823
824
808
799
780
762
752
749
751
757
767
761
762
757
753
753
753
743
733
717
707
704
700
696
698
700
706
711
700
691
659
637
618
601
592
584
580
567
559
545
528
525
518
522
536
558
576
597
621
643
656
667
667
672
672
670
664
668
677
696
721
727
733
729
720
712
708
715
720
721
723
715
704
697
688
670
646
621
597
572
543
505
470
443
414
394
371
353
326
292
266
242
220
208
201
199
194
188
182
188
193
198
201
208
217
233
248
258
267
276
283
284
284
297
329
362
386
406
412
425
445
466
491
510
532
555
557
557
552
538
521
500
483
486
480
478
481
491
497
503
503
500
499
497
503
505
513
512
511
504
511
507
492
434
385
379
432
489
528
492
408
327
275
246
218
202
226
261
281
308
344
384
431
448
478
525
582
642
685
747
793
789
794
733
652
583
518
454
393
338
289
245
202
164
135
113
90
67
57
69
106
155
173
176
179
189
206
220
238
254
268
277
284
289
300
302
300
299
301
305
301
294
280
269
263
259
249
239
232
227
215
206
199
197
194
193
193
196
195
192
186
182
182
183
184
189
197
201
203
200
205
213
220
223
229
237
245
257
266
270
267
265
267
269
270
277
286
294
298
302
308
313
320
328
341
352
360
372
383
394
410
427
441
451
462
477
494
508
524
540
550
560
570
580
592
599
612
617
619
626
634
643
651
654
665
672
682
686
691
692
687
687
689
694
694
695
697
698
685
677
659
642
631
626
621
617
612
613
615
616
622
630
630
635
636
639
643
645
645
643
636
634
639
641
641
639
630
617
602
593
590
586
586
589
593
596
602
606
613
611
609
605
602
599
597
599
608
623
637
650
650
614
555
517
525
555
578
590
595
599
607
617
617
624
624
624
629
632
637
643
645
652
656
655
652
653
653
658
661
667
674
679
688
692
695
697
696
702
707
714
725
727
731
729
733
739
739
743
745
750
750
751
750
748
747
746
744
735
723
710
702
698
693
693
692
693
690
691
689
689
689
692
693
695
695
697
693
687
678
667
663
657
658
652
644
633
627
628
625
626
626
619
614
602
595
590
586
583
580
580
579
581
581
579
576
574
576
569
564
555
544
538
532
533
526
521
516
510
509
507
503
501
499
498
498
500
503
499
496
488
482
483
485
493
492
493
493
495
500
508
518
525
530
536
541
548
553
565
573
583
588
586
575
557
544
535
534
525
523
516
510
504
498
496
493
492
495
500
506
511
518
524
525
530
534
537
539
538
537
536
534
537
537
530
515
489
466
447
434
428
426
425
427
434
441
455
477
500
530
550
538
495
462
471
498
524
534
530
526
527
528
535
541
549
553
560
559
561
550
547
544
547
549
552
554
558
562
567
578
587
597
601
603
595
589
591
590
591
590
592
591
593
598
606
609
606
598
587
581
577
579
582
583
588
591
593
593
586
587
574
562
538
513
497
483
474
470
467
468
469
471
473
478
485
497
504
509
518
524
526
532
540
547
556
568
579
588
597
599
600
597
588
591
589
586
582
577
570
557
543
532
529
526
518
515
505
502
505
511
518
524
528
532
531
528
526
519
506
489
482
477
474
470
463
448
429
411
403
392
383
377
372
367
365
365
369
369
371
372
375
379
381
379
369
354
348
344
344
341
342
343
347
346
351
348
346
340
342
346
351
350
345
341
338
340
343
346
345
349
355
359
365
376
388
391
391
390
397
406
417
429
435
433
424
407
395
385
377
372
368
365
362
366
365
368
376
389
407
434
459
483
504
490
446
412
420
449
477
497
512
527
542
544
547
556
566
580
583
594
600
592
589
574
555
537
528
520
514
511
511
514
519
522
529
537
549
565
590
612
635
654
671
690
701
713
725
727
733
737
742
752
755
762
770
771
766
760
754
747
739
737
722
706
690
675
667
662
657
656
652
646
639
637
635
641
644
646
643
645
650
655
656
657
652
646
625
606
587
574
563
556
555
557
560
571
583
574
564
533
500
471
448
432
421
407
393
378
364
354
349
345
344
342
345
346
348
353
365
380
393
401
417
440
454
468
477
486
497
508
523
537
547
560
568
575
576
576
579
583
584
584
590
594
595
594
595
597
604
610
612
612
611
613
615
615
609
592
574
556
545
536
529
523
517
516
517
515
508
492
476
466
462
459
459
458
457
453
449
449
454
452
444
444
445
449
455
461
455
449
448
451
458
469
483
495
510
520
528
529
521
519
523
528
536
553
581
604
622
617
565
494
456
462
481
495
498
500
504
507
509
512
517
523
527
532
530
527
513
501
493
484
480
481
482
482
487
491
488
484
485
485
489
498
503
505
505
501
500
502
506
511
520
529
539
540
538
530
522
520
518
515
505
503
503
502
499
492
476
462
453
443
436
424
417
411
398
393
393
393
397
406
414
422
432
448
462
471
478
489
495
493
487
490
497
501
502
508
517
521
522
518
516
510
510
514
517
513
514
517
521
523
533
542
555
556
546
523
484
458
439
432
424
420
418
416
398
372
346
319
302
294
278
259
279
326
375
426
464
519
521
517
478
430
380
338
283
246
205
166
128
109
115
111
101
95
99
108
123
145
166
190
216
242
265
290
318
344
367
386
404
422
440
450
456
466
474
482
490
496
502
508
513
515
515
515
519
518
521
520
514
507
500
500
502
501
497
498
495
489
495
500
506
512
515
517
517
514
517
522
534
548
557
562
547
504
441
416
420
440
459
474
487
496
506
515
519
523
518
520
515
512
511
511
513
516
522
527
534
537
541
549
551
557
560
566
573
574
575
572
571
572
572
578
571
564
551
541
530
521
519
517
516
518
518
516
510
506
500
499
497
492
485
483
482
484
487
489
486
476
464
466
470
474
482
492
494
487
474
465
464
469
479
486
494
499
505
511
518
530
547
567
588
604
603
591
571
554
545
537
535
533
536
533
532
523
514
502
492
485
480
478
482
487
493
494
499
504
507
510
516
522
517
512
514
519
523
531
533
544
547
553
561
570
579
584
588
586
584
585
584
582
577
578
575
576
574
573
575
569
563
562
567
558
553
550
555
562
572
581
585
585
583
597
612
626
638
630
597
563
562
583
606
626
642
652
656
659
665
668
672
669
670
666
665
665
652
632
603
575
559
535
519
500
487
477
473
472
471
472
473
475
483
486
497
508
521
535
544
557
560
567
577
588
592
592
588
589
589
596
602
597
595
590
593
600
607
617
626
624
619
609
597
589
582
578
576
579
584
589
588
588
588
588
588
584
587
591
593
594
596
600
607
616
626
631
636
638
641
641
643
642
641
642
638
635
620
600
585
564
558
539
528
523
524
525
524
528
520
519
527
525
520
496
476
467
466
468
469
476
481
488
498
508
521
531
544
547
547
552
563
570
571
573
565
561
560
561
570
586
608
622
631
619
575
520
492
488
498
514
522
532
520
522
519
532
553
570
585
585
582
576
567
560
564
561
558
560
561
563
564
562
553
540
522
520
518
516
512
513
522
532
543
556
563
568
573
580
577
576
572
567
567
560
553
547
537
529
524
519
515
507
499
482
470
464
457
455
450
452
461
467
468
468
475
480
484
485
491
493
501
508
515
517
518
522
524
520
515
492
474
437
406
379
363
353
354
356
360
371
387
399
408
417
427
430
439
443
445
439
432
430
433
436
438
444
439
433
432
430
432
426
420
422
426
422
416
395
376
367
360
354
355
358
366
370
370
374
377
376
377
381
390
394
397
396
392
394
400
406
411
414
412
414
414
422
431
442
450
458
452
445
443
445
452
457
462
469
475
479
489
502
508
513
516
516
518
518
518
522
523
524
519
510
506
506
505
506
503
499
486
469
463
458
457
452
449
448
446
445
446
447
449
447
446
442
439
436
429
422
418
419
417
423
426
435
445
449
419
367
327
331
359
383
394
394
392
391
393
397
399
398
404
413
427
436
436
428
422
424
428
439
447
457
467
473
475
467
466
466
472
476
483
491
499
509
516
522
525
526
524
519
501
481
467
459
452
444
440
436
439
442
447
444
439
430
426
424
427
432
434
430
416
407
408
413
418
420
427
432
431
431
418
413
412
417
421
426
431
438
439
439
442
452
461
476
489
502
510
511
514
509
505
506
511
517
523
530
539
546
555
562
568
566
565
562
563
565
571
570
561
541
527
519
517
514
516
519
516
507
492
485
480
479
482
484
487
491
496
501
506
511
517
525
529
537
543
554
553
550
536
518
509
506
514
521
524
526
527
528
536
542
550
556
566
578
589
600
608
619
628
633
636
632
632
628
632
636
646
656
669
677
685
678
676
656
642
634
628
623
621
619
621
622
623
626
628
626
621
618
618
623
628
638
648
657
663
663
657
650
645
648
651
653
657
660
665
671
674
679
680
680
685
690
687
683
670
656
645
638
635
630
630
625
620
611
603
605
613
623
625
599
544
505
502
525
542
550
557
557
556
547
543
542
546
551
558
568
578
590
602
613
625
634
647
659
668
678
683
692
688
687
694
699
701
710
722
724
731
712
687
648
620
598
577
555
538
526
518
513
507
501
500
498
498
498
493
492
493
494
496
491
485
476
469
469
466
467
468
469
474
477
479
486
491
493
486
476
452
432
421
421
422
423
427
432
438
447
447
452
446
442
444
447
450
455
463
471
478
483
494
503
508
513
516
520
528
534
533
530
517
510
507
501
494
483
474
463
459
456
454
452
450
450
446
442
434
431
424
416
405
397
391
388
391
393
391
380
367
351
338
331
326
324
322
325
328
334
336
343
350
360
362
361
349
337
327
326
327
327
328
334
341
350
359
371
380
392
403
413
424
433
442
450
455
461
465
471
474
477
481
484
493
496
498
488
478
472
471
469
471
472
469
465
458
453
452
448
447
448
450
454
455
463
461
458
449
443
439
438
440
442
442
442
440
446
460
472
487
485
451
405
392
417
441
460
469
478
482
488
487
487
485
486
481
477
473
476
481
487
491
501
509
518
525
531
537
534
530
520
509
505
506
512
515
517
517
518
514
510
507
513
517
522
528
536
544
553
562
567
560
558
543
533
521
514
507
501
496
493
492
490
486
490
488
489
491
497
499
504
509
519
524
530
536
542
550
555
564
569
574
578
581
586
585
588
586
586
580
582
583
587
586
583
575
565
549
541
540
545
550
556
564
570
576
580
581
577
576
580
585
593
595
596
581
562
544
528
522
518
520
523
524
528
537
547
550
548
541
532
519
513
504
498
497
502
514
529
541
554
564
572
576
586
591
591
579
572
553
531
517
505
503
504
510
519
527
538
548
560
575
586
597
609
619
626
639
647
652
660
670
676
681
688
682
677
666
660
657
655
653
649
647
649
652
658
657
646
632
623
616
603
586
561
537
517
504
500
509
524
541
556
555
520
462
437
453
485
515
530
538
547
550
551
547
542
536
532
534
535
541
542
543
545
545
551
554
558
557
555
553
551
547
538
527
522
516
520
518
521
523
521
529
532
535
536
533
521
503
486
480
474
468
453
438
414
388
375
369
367
363
360
355
348
333
320
315
313
311
313
319
324
328
336
347
354
360
364
378
372
359
317
289
275
269
268
267
270
273
270
268
267
270
275
280
291
304
320
333
350
362
376
390
400
410
423
437
449
463
470
479
488
500
516
523
533
529
529
529
535
543
547
557
562
569
581
587
593
595
596
599
603
606
609
617
621
628
634
651
661
671
680
682
674
658
640
621
614
605
601
598
599
598
609
607
608
596
585
581
575
569
561
548
537
536
539
546
552
560
570
584
597
602
604
598
589
589
602
613
631
650
660
661
647
625
610
600
596
593
590
592
589
593
580
567
558
553
551
546
547
555
569
589
611
627
643
651
660
666
651
640
624
628
640
660
666
632
582
556
564
577
577
570
567
557
541
534
530
542
558
568
572
565
563
563
566
571
580
585
589
590
584
576
571
575
585
587
590
587
585
585
589
594
601
608
613
615
615
615
619
627
635
644
649
654
661
651
642
623
598
582
565
554
540
531
523
510
494
480
469
462
452
447
443
443
444
447
454
463
466
470
471
467
463
466
468
470
474
479
479
475
463
449
435
428
422
422
422
419
418
415
412
406
403
403
406
412
415
417
411
405
407
411
413
419
425
434
447
463
479
484
488
488
488
493
498
503
510
521
525
522
504
485
472
466
460
456
454
459
463
467
477
483
478
474
463
458
455
458
467
475
483
484
480
470
466
468
476
485
486
485
478
466
459
459
464
471
477
483
492
504
520
529
534
531
524
518
508
499
490
485
483
484
490
497
505
511
518
522
521
505
481
445
417
400
395
396
395
396
394
395
392
392
396
396
397
396
396
400
404
412
419
425
437
453
465
482
499
522
540
538
504
471
476
495
495
477
458
446
440
435
435
444
457
468
474
473
468
464
462
468
475
480
488
496
506
515
529
534
540
546
553
564
577
592
597
594
574
547
523
515
516
526
536
541
543
548
553
553
557
554
551
552
545
533
509
479
452
432
418
403
394
392
393
401
404
400
379
342
316
299
286
276
263
256
259
266
279
297
306
306
303
312
331
357
383
400
420
442
463
478
497
515
533
550
569
588
603
617
625
631
635
635
632
621
607
597
593
589
586
582
578
576
572
575
581
590
592
593
587
584
577
569
570
571
573
576
582
591
601
609
612
610
609
606
606
601
598
601
606
606
606
603
602
602
603
606
610
604
594
569
547
536
534
537
537
534
530
526
520
509
505
507
510
513
511
497
471
433
402
380
363
363
373
385
381
362
344
342
353
379
411
433
445
447
443
450
468
497
516
522
507
499
502
518
544
571
597
620
643
647
655
656
649
651
642
640
645
661
679
703
712
684
636
627
648
677
694
704
708
714
719
720
717
710
698
689
685
683
684
684
688
689
681
674
663
647
640
629
618
604
590
576
563
555
552
548
547
543
540
536
531
528
524
516
512
506
503
498
486
484
480
480
478
474
474
468
458
449
438
431
424
422
423
425
429
429
424
423
425
430
438
446
451
455
458
462
473
488
500
508
516
515
511
505
500
502
510
521
528
528
518
504
492
485
482
480
477
476
472
471
474
477
482
492
499
499
506
517
529
537
545
550
556
557
561
562
553
545
534
530
532
538
538
535
521
503
493
492
498
503
508
507
511
520
530
538
545
546
544
540
541
540
540
537
529
523
521
519
519
520
518
516
511
498
477
456
449
444
441
442
434
429
418
410
398
388
383
388
395
391
381
372
372
369
366
359
352
344
332
318
314
313
323
335
350
365
386
409
438
462
484
499
483
441
420
436
467
498
520
534
547
556
558
560
558
558
563
571
576
580
586
593
601
605
611
600
584
559
540
523
514
512
514
520
529
539
544
550
555
560
567
574
578
576
573
574
576
584
588
581
575
566
562
561
560
561
560
560
558
557
555
553
555
556
551
543
530
520
513
510
510
514
523
530
533
534
531
534
538
545
552
560
564
565
559
552
548
547
550
554
556
556
559
566
555
550
527
508
503
502
502
502
498
496
503
509
510
508
506
504
502
500
495
492
485
478
475
471
473
473
479
486
496
501
498
490
489
489
490
496
500
509
519
528
527
521
513
513
518
522
528
528
524
523
520
522
520
513
498
481
465
448
443
443
451
459
464
470
472
479
492
514
526
531
532
537
547
557
568
577
584
590
595
596
598
604
612
612
606
598
599
603
608
604
600
584
569
561
556
546
534
512
498
489
493
502
519
541
547
550
527
464
380
328
323
343
362
371
373
372
378
383
392
405
417
421
425
431
441
454
461
463
450
436
423
424
419
419
420
421
427
435
444
456
465
471
478
485
493
499
511
524
536
548
558
569
578
583
590
602
613
616
617
607
595
583
578
577
572
561
547
528
517
515
516
521
526
532
531
524
508
484
447
406
371
345
330
317
314
318
324
336
355
378
403
426
448
468
485
506
520
528
532
536
544
556
561
565
561
557
557
560
565
575
580
590
601
613
623
629
631
627
621
610
596
578
563
553
549
543
539
535
529
517
511
514
518
522
520
517
503
487
474
467
452
439
427
416
415
421
425
422
403
390
390
400
416
436
451
462
476
488
504
508
522
515
514
509
512
515
521
532
544
553
559
563
568
564
559
550
534
527
512
497
487
481
478
474
475
479
479
476
477
478
481
487
485
470
447
426
407
391
375
364
354
351
352
358
363
365
374
387
401
420
413
369
294
256
264
282
294
298
307
313
318
319
327
335
347
366
386
402
419
430
443
457
470
485
503
524
543
562
576
588
602
619
639
657
666
671
669
671
675
675
680
678
679
688
698
713
722
734
739
744
751
754
758
761
763
769
772
772
761
751
736
723
721
714
708
707
709
713
717
722
725
724
721
720
719
716
712
702
691
676
664
646
625
604
587
568
548
532
513
491
473
459
456
450
446
447
451
450
445
436
431
428
424
425
429
432
437
445
457
467
465
454
434
407
378
345
315
297
288
289
293
301
312
325
339
353
368
387
405
427
441
450
450
454
464
477
494
507
522
537
554
576
595
615
629
646
659
668
675
680
678
673
661
647
636
620
611
603
589
574
562
551
547
547
546
550
549
542
531
528
524
525
535
538
545
537
532
531
531
533
531
534
540
544
545
545
545
549
557
565
573
587
583
568
519
456
396
343
295
249
198
132
77
60
47
35
27
20
14
11
9
6
5
3
4
2
1
0
3
1
0
0
0
1
0
0
0
0
0
0
0
0
0
0
0
0
0
0
0
0
0
0
0
0
0
0
0
0
0
0
0
0
0
0
6
26
55
82
116
167
214
247
264
271
287
316
358
386
407
434
439
412
400
377
421
463
508
573
599
626
642
650
633
666
646
633
622
604
588
608
609
598
596
604
616
631
665
689
712
734
758
806
810
822
839
824
838
815
805
782
782
771
790
776
777
774
780
789
794
795
799
798
805
805
805
796
795
798
798
797
797
791
793
793
789
787
782
778
774
774
768
763
751
737
721
704
689
676
661
652
646
641
637
633
625
621
613
611
613
611
612
604
598
593
578
565
553
541
532
525
521
521
523
530
532
537
536
535
539
542
550
556
557
565
570
576
581
592
599
607
617
627
638
649
663
676
687
694
697
700
702
705
707
710
707
727
739
738
740
725
724
737
762
780
787
770
745
725
715
705
701
698
698
692
692
691
693
695
699
702
701
703
705
720
736
750
755
733
676
629
631
651
673
685
683
682
677
674
678
682
682
683
682
684
684
685
690
689
690
695
696
698
697
698
696
690
688
681
678
677
678
680
683
683
682
680
676
670
667
661
653
641
630
614
601
585
576
569
569
571
576
573
564
544
525
508
497
488
479
472
462
454
450
448
445
445
445
443
443
441
444
452
457
457
447
434
420
409
396
380
375
375
379
378
377
370
367
364
367
365
368
371
380
386
394
400
406
414
417
420
421
423
425
430
431
432
430
434
440
446
446
438
422
410
400
395
391
387
385
382
381
376
377
375
375
374
380
383
391
397
405
410
414
417
423
429
437
445
448
453
454
462
469
476
480
485
491
492
493
492
489
482
480
474
474
472
472
464
461
449
451
455
462
465
470
473
474
473
474
470
463
460
459
455
454
447
442
433
423
419
414
410
402
397
395
395
397
402
410
418
425
436
444
454
464
473
481
485
488
489
494
496
502
507
521
538
554
570
566
527
468
443
450
470
482
485
486
486
485
483
485
487
492
492
493
493
494
496
498
500
502
499
496
492
491
489
490
493
498
498
500
499
503
507
516
528
533
537
533
532
532
534
539
546
546
548
550
553
553
558
561
564
563
558
550
541
531
526
521
516
511
509
511
515
521
521
521
516
507
498
491
486
487
488
492
493
498
497
499
502
509
517
523
532
535
540
544
548
551
550
549
548
553
557
561
565
569
570
567
564
555
543
528
508
491
474
465
456
448
439
428
423
418
415
413
414
418
419
420
421
421
424
432
440
447
453
457
458
457
457
458
457
458
459
461
459
457
452
450
444
439
437
437
439
442
447
450
454
457
461
462
462
460
463
462
463
463
464
465
464
466
467
469
471
477
482
485
487
489
485
485
483
486
485
485
485
486
484
481
476
473
473
472
474
475
476
475
474
473
472
474
475
478
479
486
489
494
497
501
504
506
509
514
516
521
529
541
572
595
603
561
499
476
489
515
530
537
536
535
532
527
524
520
518
515
511
509
507
508
509
513
510
510
506
504
503
506
512
519
528
536
544
552
558
565
569
572
576
578
580
586
591
599
606
612
620
626
628
628
626
621
610
599
587
576
566
557
551
542
535
525
519
510
503
499
496
497
496
500
503
507
507
512
518
525
532
542
549
552
557
562
569
572
576
576
576
576
576
573
570
567
562
557
555
552
552
551
550
545
542
535
532
526
526
522
519
518
518
516
514
510
507
505
499
495
492
491
490
494
496
500
502
508
509
513
517
522
523
523
521
520
513
511
506
501
494
487
484
479
479
475
475
473
470
469
468
468
462
459
453
445
443
436
437
438
441
445
452
459
463
465
456
442
429
417
408
402
396
397
397
396
399
401
408
413
419
426
433
441
449
456
460
467
474
480
481
481
480
478
476
475
474
474
485
499
512
525
511
468
417
406
425
451
471
479
487
493
501
505
514
519
525
531
536
540
541
540
538
539
537
535
535
534
532
530
532
531
533
535
534
534
529
530
528
526
524
522
526
528
531
535
541
547
550
554
554
555
554
554
554
551
551
544
540
534
530
527
522
519
514
512
508
507
508
509
511
510
512
510
507
505
500
494
489
486
485
482
481
479
474
471
468
466
467
465
465
463
459
451
439
429
425
422
420
420
423
429
439
450
461
470
482
491
500
506
514
520
527
536
548
557
568
575
581
581
576
568
559
548
540
531
528
522
517
516
514
514
517
520
525
526
530
533
537
537
540
545
546
549
549
552
550
551
552
555
556
557
560
559
561
564
571
573
575
577
582
583
586
587
588
586
584
582
577
574
567
563
555
546
543
536
534
532
533
534
532
533
531
531
529
525
525
521
516
508
497
491
485
482
481
479
481
483
489
494
500
507
513
517
521
528
540
560
577
598
606
590
540
502
511
546
581
598
604
597
588
581
571
569
567
564
564
563
563
561
562
561
565
568
572
571
573
570
568
551
529
487
445
411
383
359
340
324
311
301
291
284
280
280
283
290
300
307
318
334
347
361
374
388
403
415
431
439
451
453
455
445
436
438
449
462
478
497
515
533
545
558
565
578
590
602
615
626
631
633
635
640
644
649
654
656
663
666
667
661
655
649
642
634
626
617
609
606
603
600
598
596
598
602
602
602
600
600
598
595
594
585
581
579
578
574
573
573
573
573
575
579
586
594
604
614
621
625
628
627
627
622
619
621
621
626
627
625
618
612
605
604
602
603
605
608
610
608
611
605
604
601
602
600
602
606
607
605
599
593
586
580
574
571
567
564
560
560
557
556
554
554
554
555
557
557
553
544
525
508
491
479
471
460
452
441
436
431
425
426
429
434
442
450
461
467
473
483
498
510
526
530
503
447
418
427
452
470
477
474
470
466
464
461
460
454
452
448
443
443
441
444
443
446
449
452
450
448
443
439
431
427
417
407
400
397
394
396
398
403
407
412
413
414
418
416
418
415
409
399
390
384
377
368
355
343
334
327
320
315
309
302
301
298
290
280
265
249
234
221
210
201
197
195
194
194
199
203
208
217
229
240
255
267
274
281
285
285
288
296
304
312
323
331
339
350
358
365
371
376
384
394
400
409
424
436
452
467
483
494
504
511
519
517
512
509
511
510
509
515
523
533
542
548
552
556
559
563
562
562
558
561
561
560
565
568
569
571
572
576
577
586
592
593
593
590
592
598
604
612
617
624
627
630
630
629
621
616
596
579
569
566
569
571
579
586
595
604
610
619
629
637
647
655
668
677
690
697
706
714
729
749
767
784
781
749
684
626
621
641
671
691
706
719
726
740
749
760
771
777
786
788
785
788
786
785
780
773
761
749
737
733
728
727
723
726
724
723
727
728
733
733
737
744
745
751
756
764
767
778
782
787
784
782
772
756
741
727
710
692
679
667
657
649
638
631
624
617
612
608
607
609
607
610
608
604
605
607
605
598
597
584
584
588
597
607
615
618
618
618
610
605
599
596
592
587
582
579
570
568
563
560
563
561
561
554
555
552
555
549
549
555
562
565
574
578
578
579
572
571
576
574
580
583
589
591
583
578
565
558
552
550
542
538
532
527
526
526
527
529
528
527
533
534
537
541
546
551
548
541
531
518
508
492
476
464
455
447
431
410
388
370
353
340
331
324
313
307
302
301
298
297
292
289
286
289
293
292
286
280
277
267
256
249
246
248
250
256
264
275
285
285
285
290
304
317
318
307
299
297
297
300
306
314
318
329
347
366
385
401
409
416
417
417
422
424
431
431
407
354
315
321
348
370
381
387
383
362
341
322
306
289
272
252
235
234
256
290
321
334
348
366
370
362
338
318
305
308
305
288
269
258
249
261
274
296
310
327
346
376
417
454
493
509
537
550
584
623
651
665
667
663
662
661
662
664
661
661
661
655
658
654
653
650
644
639
638
633
620
606
591
578
557
548
524
505
480
450
426
404
385
373
363
351
339
330
321
321
320
325
326
320
307
304
311
309
310
309
309
307
311
314
316
321
326
334
337
332
330
330
335
340
346
354
356
368
378
382
383
385
396
406
423
438
455
467
483
494
498
494
495
496
502
506
512
519
528
530
535
536
535
540
544
550
541
533
528
525
531
532
543
547
544
540
540
532
535
530
523
517
512
503
498
483
466
456
454
453
455
455
454
454
453
458
463
470
478
486
496
504
517
526
537
545
553
561
568
576
591
607
623
637
649
661
675
690
704
707
712
708
699
687
669
659
648
642
634
633
624
615
600
578
557
545
547
563
581
594
594
565
512
480
494
522
552
567
583
591
603
611
615
618
618
614
611
590
574
563
561
557
558
555
559
562
567
570
575
576
578
583
587
591
594
596
595
592
588
593
579
568
549
530
508
484
463
447
433
419
404
384
363
348
341
335
328
323
321
316
312
314
319
321
320
320
321
324
330
339
347
354
356
357
354
354
358
362
363
365
370
375
384
391
397
398
400
402
405
409
415
421
429
432
433
439
454
461
460
456
453
451
447
449
452
452
454
461
463
465
470
474
478
484
488
488
487
485
487
489
495
496
497
500
504
512
514
517
509
502
496
493
490
489
490
493
494
495
500
510
516
525
534
537
541
543
545
545
552
560
567
574
578
581
585
590
597
606
613
612
617
604
580
567
552
541
531
527
526
520
512
498
492
489
493
496
501
506
512
515
524
534
543
557
567
572
579
584
589
592
593
592
597
601
603
597
600
587
600
616
631
634
608
556
515
516
536
558
570
576
575
574
578
584
590
599
604
605
608
611
617
626
630
636
642
634
633
630
625
620
614
611
604
604
609
618
631
645
661
676
693
709
728
741
760
776
789
798
809
803
794
777
758
745
736
727
724
719
712
704
698
691
687
685
685
686
685
686
683
680
675
671
664
659
654
652
652
645
645
642
644
644
649
652
652
649
642
637
626
621
623
625
631
638
643
650
651
655
646
635
617
603
595
588
586
582
585
584
585
585
583
581
580
582
583
585
590
594
592
582
564
545
523
499
484
482
489
501
518
536
554
569
576
588
597
605
618
621
628
634
640
642
642
638
633
630
632
629
633
634
637
639
636
635
633
630
627
619
612
603
594
576
558
545
531
523
513
509
495
482
468
453
450
449
451
452
452
450
436
418
405
398
397
399
404
411
418
422
426
429
439
448
457
461
463
468
475
488
497
498
502
496
496
492
491
490
491
492
489
487
490
502
510
521
511
471
413
382
386
406
413
411
409
409
411
411
412
411
405
395
386
379
377
377
382
381
371
359
345
334
317
290
266
249
237
229
222
217
218
221
234
244
256
267
277
287
295
303
310
308
306
297
287
275
263
260
263
272
279
281
283
279
279
280
279
278
275
278
283
292
291
300
318
343
359
371
372
376
386
400
413
424
438
449
461
468
476
482
489
496
507
516
530
536
535
530
521
510
503
503
502
502
505
496
489
489
497
504
508
509
502
495
493
502
511
519
529
543
557
570
587
572
563
507
462
412
367
329
293
259
225
195
170
151
138
130
126
124
128
144
163
174
171
166
166
171
180
189
196
208
221
235
251
274
296
321
349
377
411
446
486
532
573
604
629
655
683
712
735
756
781
797
821
828
832
834
835
840
838
837
834
833
844
850
856
869
872
876
883
886
876
867
846
823
809
796
789
784
787
774
771
771
770
779
798
806
814
802
755
694
668
684
706
726
733
743
747
750
756
767
772
783
789
791
793
791
790
784
771
777
773
772
775
772
772
765
759
756
742
728
701
681
647
616
585
564
548
534
528
522
518
514
512
513
516
524
540
558
575
595
605
617
628
640
652
663
678
689
703
702
703
697
695
700
704
709
710
718
725
732
741
745
751
756
750
745
736
715
703
679
656
641
631
623
613
604
602
596
589
584
569
567
566
565
562
552
536
522
505
485
467
452
440
427
415
407
396
384
373
367
356
351
346
345
340
343
344
347
347
344
343
342
344
345
350
348
350
345
342
336
335
335
335
325
318
311
313
314
319
323
329
337
341
346
350
354
363
374
389
396
398
396
389
385
383
381
374
372
366
361
354
348
346
339
334
326
323
316
310
303
297
294
287
287
284
285
285
288
289
291
291
290
299
313
330
343
334
290
231
214
233
262
281
284
282
284
292
306
320
333
347
358
373
388
405
420
434
451
460
472
477
484
483
487
492
501
517
531
545
559
566
575
574
574
567
569
566
569
571
578
589
598
607
613
616
621
625
630
640
638
631
618
602
587
576
567
560
549
546
540
533
534
534
533
537
547
554
544
513
476
446
434
440
463
484
530
555
600
619
626
620
564
580
576
616
645
645
595
517
448
462
532
586
608
563
504
454
413
380
348
330
354
427
503
575
642
697
738
754
764
822
849
868
871
890
908
914
928
939
947
946
949
940
943
956
956
957
941
944
938
940
901
800
717
657
615
576
549
516
498
502
548
618
680
733
776
798
826
822
816
816
813
813
811
809
818
811
824
832
851
881
886
900
903
901
909
910
894
872
860
855
856
853
832
822
808
809
806
793
790
799
809
812
814
823
824
828
839
829
827
827
827
839
851
818
758
714
704
720
740
751
765
770
780
779
778
770
770
765
769
760
751
748
737
732
734
741
765
780
789
795
798
816
841
845
836
814
819
817
814
810
795
796
794
794
789
786
787
776
786
783
789
771
742
650
532
413
307
205
129
92
71
54
42
30
25
17
14
9
8
6
5
5
3
3
3
0
0
0
0
0
0
0
0
0
0
0
0
0
0
0
0
0
0
0
0
0
0
0
0
0
0
0
0
0
0
0
0
0
0
0
0
0
0
0
0
0
0
0
0
0
0
0
0
0
0
0
0
0
0
0
0
0
0
0
0
0
0
0
0
0
0
0
0
0
0
0
0
0
0
0
0
0
0
0
0
0
0
0
0
0
0
0
0
0
0
0
0
0
0
0
0
0
0
0
0
0
0
0
0
0
0
0
0
0
0
0
19
48
70
87
100
118
131
142
158
171
182
190
191
193
194
193
190
188
185
177
174
177
174
168
175
196
220
239
247
230
191
169
192
237
278
310
339
364
384
406
433
458
477
497
509
524
544
561
581
600
614
636
656
664
675
685
691
692
702
708
713
717
728
730
734
741
751
766
772
774
771
770
768
777
780
786
794
796
798
796
794
788
787
795
791
801
796
799
794
794
798
805
809
815
820
813
811
802
793
788
786
792
797
797
801
801
801
798
800
803
805
806
806
808
807
807
804
802
793
788
785
787
786
790
796
804
804
806
809
809
817
818
822
820
822
826
831
831
827
827
827
827
832
833
833
835
826
818
806
801
799
805
810
816
820
828
832
828
827
823
824
829
827
828
825
818
813
815
819
820
819
813
809
805
803
804
806
807
806
804
801
798
798
802
808
802
800
789
785
784
786
795
797
799
801
804
813
828
846
850
841
799
739
704
719
754
782
796
804
800
795
786
780
773
767
763
755
755
752
743
738
733
727
723
716
717
712
714
717
718
708
691
673
661
654
648
644
637
628
617
608
601
599
602
612
619
625
625
627
614
606
591
574
561
550
540
526
507
488
475
466
461
458
462
463
466
469
479
486
487
482
477
469
466
462
460
459
460
466
471
475
482
489
496
499
502
503
504
507
512
520
524
527
527
529
533
538
549
547
544
535
530
525
527
519
516
507
502
498
500
499
501
508
514
509
498
481
467
458
457
461
460
456
444
434
431
427
431
433
433
427
416
412
411
411
414
412
417
418
429
432
439
446
458
472
485
497
514
527
526
526
517
504
505
511
520
526
525
492
436
409
428
456
484
501
509
521
522
524
528
533
545
548
552
551
557
568
570
568
564
561
563
574
582
585
582
576
578
579
583
580
584
574
570
570
572
580
583
585
593
594
589
582
567
559
551
548
544
540
542
540
539
534
529
527
526
522
513
497
479
464
456
456
452
451
451
448
443
433
424
412
409
400
396
393
394
399
400
399
401
407
415
421
422
425
428
430
434
422
415
410
408
409
415
429
441
450
459
466
476
490
504
522
527
534
529
520
514
517
515
518
522
533
538
542
541
547
555
556
554
545
543
548
547
544
537
529
522
521
516
514
506
491
457
425
403
398
407
422
438
446
421
364
314
309
324
346
365
379
391
411
422
429
425
420
426
437
450
469
480
494
489
484
486
478
483
477
476
479
491
513
526
543
555
573
581
596
605
615
624
630
623
623
616
619
612
615
597
589
590
597
603
597
590
567
547
535
526
522
517
508
501
495
483
475
450
416
376
332
288
267
230
196
156
128
113
94
74
63
55
51
41
27
17
12
10
6
5
4
2
1
1
2
0
0
0
0
0
0
0
0
0
0
0
23
57
79
93
103
118
134
141
144
143
140
139
141
140
137
133
131
132
132
133
129
121
117
116
115
112
105
104
106
105
105
101
91
81
79
75
74
72
74
77
89
96
103
108
113
122
129
138
159
189
215
236
244
212
158
137
160
197
226
245
258
271
285
301
320
336
347
357
360
362
369
380
392
400
407
413
421
428
435
443
452
462
469
474
475
479
485
494
505
517
530
541
552
563
571
576
574
572
573
576
579
584
588
590
586
582
581
580
580
583
582
582
579
581
583
587
592
601
609
617
625
632
634
634
639
648
656
664
675
682
688
693
696
700
700
700
700
705
708
710
715
719
723
728
732
736
732
730
725
717
710
706
704
701
698
696
687
681
668
656
650
642
639
638
636
633
633
633
633
635
641
645
647
646
649
652
656
660
665
665
662
660
660
664
669
676
682
689
695
698
696
690
678
670
666
660
658
659
663
665
672
675
676
677
680
676
671
664
661
662
666
668
676
685
681
680
668
657
651
651
648
644
639
633
633
627
625
620
622
625
633
642
648
649
653
662
674
682
688
690
691
687
684
678
669
656
651
646
646
659
671
681
682
656
602
568
574
605
633
649
650
657
656
653
651
648
653
653
654
656
661
662
663
666
662
656
647
646
642
641
640
646
653
656
660
662
667
675
677
679
672
667
668
667
663
659
652
644
638
632
633
633
632
631
636
638
637
643
649
650
656
653
649
637
628
622
621
622
625
634
636
641
643
645
655
655
656
651
642
640
647
656
668
675
680
685
687
690
688
678
659
633
615
601
589
582
576
573
571
574
579
581
584
586
590
595
599
605
612
615
604
602
585
584
579
584
580
573
574
574
575
575
578
578
583
587
594
585
573
549
541
528
517
496
494
494
501
508
511
509
507
512
516
520
515
516
513
514
511
508
508
513
533
549
560
565
568
576
590
593
600
604
602
600
599
592
587
577
564
559
552
546
548
544
536
520
514
511
510
508
505
501
499
501
501
504
503
505
507
510
508
505
495
476
451
436
425
413
405
396
385
380
378
376
377
378
382
384
381
385
395
408
416
416
394
332
278
266
282
296
298
301
303
304
311
319
329
335
334
333
335
336
340
345
345
345
339
336
336
336
336
339
337
331
318
306
297
290
286
282
274
264
256
250
244
238
238
243
249
258
270
283
294
306
318
330
343
354
361
369
373
368
361
358
358
361
365
369
371
378
386
396
412
422
425
422
422
426
432
437
450
463
477
491
506
519
528
536
542
544
531
514
498
486
478
474
472
473
475
481
488
495
505
516
528
534
542
552
551
554
545
538
535
530
526
525
520
518
524
528
534
536
536
529
518
511
502
495
491
486
488
489
487
491
500
511
521
532
535
530
518
512
510
505
505
509
515
524
530
540
547
542
541
525
510
500
497
499
497
499
509
522
532
543
560
575
588
597
612
626
629
638
630
615
606
602
602
600
609
617
630
641
652
660
667
678
690
700
705
699
709
716
730
748
762
774
787
794
797
804
773
712
644
625
638
660
668
672
659
648
646
644
640
637
634
631
631
634
637
636
640
635
640
644
646
653
662
657
663
662
648
643
634
633
632
638
635
632
622
618
620
625
630
625
624
619
613
614
619
618
618
615
617
616
608
591
575
556
540
528
513
502
498
493
486
474
461
453
444
435
421
403
382
370
359
352
346
340
341
339
330
329
327
329
329
331
336
334
324
310
300
290
285
283
282
284
281
282
288
293
302
308
312
309
305
308
311
311
316
322
329
336
344
350
347
338
337
339
341
345
351
360
366
375
385
389
393
395
403
404
403
404
402
397
393
388
388
389
390
391
393
385
376
375
375
380
385
388
391
390
386
384
382
379
376
378
380
379
378
377
382
401
423
444
452
425
379
352
355
373
396
408
417
429
439
452
458
467
478
483
487
488
489
495
502
515
524
529
535
542
552
560
570
579
591
594
600
599
597
601
605
611
615
612
613
613
615
622
634
644
657
656
662
656
645
644
644
640
631
622
615
614
619
620
623
620
618
620
626
634
633
633
618
605
595
589
581
577
580
583
591
592
601
605
615
618
624
621
618
617
619
624
630
627
624
614
600
589
583
577
573
569
570
561
552
545
538
533
530
531
533
535
536
534
535
535
543
552
568
570
570
562
556
556
558
559
557
551
548
551
553
548
542
526
512
506
503
506
509
517
522
529
533
540
545
552
548
544
536
526
527
530
536
540
546
551
560
570
583
594
604
615
626
638
630
618
590
563
544
531
524
521
515
517
521
525
529
537
549
563
577
581
544
488
464
486
522
548
561
565
561
548
527
513
508
504
506
510
513
514
521
529
537
537
537
531
527
528
534
542
550
555
566
572
578
573
570
563
559
554
549
544
542
544
544
543
542
547
548
545
538
525
516
506
500
491
478
466
453
444
435
424
416
410
405
402
402
404
400
398
394
389
388
387
390
393
395
399
401
403
403
405
408
410
413
412
412
403
394
390
387
383
382
386
392
397
402
411
418
425
433
444
454
458
461
451
442
437
436
437
437
443
448
451
452
441
432
428
427
430
431
435
435
432
430
430
439
452
465
476
478
479
477
481
491
506
522
539
558
575
590
601
607
614
616
617
624
621
613
588
565
550
531
513
496
482
466
461
461
468
475
488
500
513
525
541
555
567
572
580
588
596
604
608
617
617
624
627
627
624
625
630
636
645
652
654
658
662
673
681
689
694
698
706
693
680
649
618
596
579
571
558
546
546
528
477
426
425
459
502
533
550
561
564
565
570
578
584
594
608
621
630
635
637
635
633
633
631
628
622
622
623
615
613
605
602
601
608
618
627
632
634
636
638
641
647
651
644
637
624
614
608
605
604
607
603
604
609
611
613
616
614
606
591
577
567
562
560
560
555
542
526
517
518
523
530
545
560
573
577
581
570
561
551
548
551
553
563
574
586
598
609
623
634
636
636
631
619
605
594
574
550
527
511
500
489
482
474
464
439
411
357
296
245
202
170
130
92
71
50
37
28
20
16
29
57
86
112
137
130
107
97
98
107
108
92
70
51
32
27
21
13
10
8
6
5
22
33
17
6
7
4
3
3
1
2
0
1
0
0
0
0
0
0
0
0
1
0
0
0
0
0
0
0
0
0
0
0
0
0
0
0
0
0
0
0
0
3
0
0
0
0
1
0
0
0
0
0
0
0
0
4
9
9
0
1
0
0
0
0
0
0
1
0
0
0
0
0
0
0
0
0
0
0
8
39
89
144
196
210
183
172
200
245
291
340
379
411
439
473
508
541
562
593
599
604
642
667
693
725
743
775
800
810
828
836
841
835
836
834
836
816
804
756
698
647
602
561
525
497
469
440
418
399
377
358
341
328
315
300
291
282
271
262
253
244
237
228
225
221
214
211
210
210
211
216
229
256
293
334
364
383
385
386
391
390
391
395
397
398
403
408
411
415
419
423
429
435
440
447
454
454
455
449
443
437
433
428
423
421
432
452
487
527
561
590
615
638
661
680
696
711
728
742
754
765
774
781
788
798
807
812
817
822
825
824
825
826
827
826
826
826
825
824
824
821
816
812
809
806
802
799
799
798
796
793
791
790
788
787
786
782
780
782
785
784
783
783
782
783
787
788
787
785
785
786
788
787
786
786
785
783
782
782
781
782
782
781
779
777
777
775
773
770
768
766
762
760
761
759
757
756
753
751
753
765
776
784
785
756
696
653
655
681
702
713
717
718
716
713
712
708
706
703
700
697
694
690
687
685
681
677
675
670
664
660
659
656
652
650
651
650
647
648
648
646
643
644
643
640
638
640
640
640
640
640
640
639
638
636
631
626
622
618
612
603
597
591
583
574
567
562
557
553
549
546
541
541
539
536
534
532
533
533
531
529
528
527
525
523
522
520
521
522
523
521
520
522
523
523
524
524
525
525
526
527
527
525
527
529
531
532
533
531
529
525
522
520
516
515
515
513
509
507
505
501
495
493
492
491
488
487
485
486
486
486
485
483
483
485
486
488
489
491
491
489
488
487
488
488
490
491
490
489
492
492
492
492
494
495
495
496
496
494
492
488
485
480
478
477
477
477
478
480
481
480
482
485
487
488
486
487
486
481
480
479
477
475
475
475
475
474
475
475
475
476
476
476
477
479
480
480
478
480
485
490
503
522
540
555
553
516
461
437
450
474
493
500
502
504
505
505
506
508
508
508
509
511
512
512
512
510
508
506
505
503
501
500
502
503
501
501
502
504
505
507
510
511
511
513
513
513
513
516
519
519
520
525
526
526
526
526
523
519
515
508
500
493
488
483
476
469
465
463
459
455
454
455
454
454
455
453
453
455
458
458
457
461
462
463
464
469
473
477
481
486
489
489
492
495
498
499
500
500
501
499
497
496
495
493
493
493
489
486
487
485
482
480
479
479
476
476
475
473
471
471
472
470
469
471
472
471
470
473
474
474
475
476
477
478
479
481
481
482
484
486
487
486
488
492
495
497
501
502
504
507
510
510
508
508
512
516
517
517
519
521
523
527
530
531
530
533
534
535
536
537
536
534
534
539
552
565
578
589
572
521
472
470
496
521
534
539
541
543
546
547
546
546
548
549
549
548
550
551
551
552
554
554
554
556
558
560
564
567
571
572
574
574
574
574
573
575
575
572
572
573
574
573
574
573
570
567
567
565
561
557
554
550
545
540
537
532
526
521
517
513
509
508
507
507
508
510
513
515
516
519
522
523
524
527
530
531
534
538
540
539
540
542
542
542
542
543
542
542
542
543
542
540
540
540
539
539
539
539
537
535
534
531
529
527
526
525
522
522
523
521
520
522
523
522
522
522
519
516
514
514
515
514
516
516
516
512
511
509
506
504
503
503
499
496
496
494
492
492
493
492
490
488
487
483
480
479
477
475
472
472
471
470
471
473
472
469
466
466
466
465
465
465
465
464
465
467
468
469
472
473
473
474
477
478
479
481
485
496
511
524
537
531
488
429
405
420
443
458
463
464
466
469
470
470
470
472
474
474
474
477
478
478
479
482
484
485
487
490
491
491
492
493
493
493
496
499
499
499
501
502
502
503
506
507
508
510
511
513
514
516
516
516
515
514
514
512
509
508
504
499
495
493
490
487
485
484
482
478
476
475
473
470
471
472
473
474
477
479
479
478
479
479
478
478
479
480
478
478
479
477
476
478
478
477
476
476
476
476
478
480
480
480
480
481
481
481
482
484
484
484
486
488
490
491
494
496
497
499
502
505
505
507
509
510
508
510
514
515
517
520
521
521
522
524
525
525
526
527
528
529
530
533
534
532
530
529
525
523
523
523
520
518
517
516
516
515
516
515
513
511
512
510
508
507
507
505
503
505
515
529
540
549
535
487
437
423
436
454
469
480
487
489
492
495
495
496
499
501
501
502
504
507
509
510
513
516
516
518
521
522
523
525
526
526
523
523
523
522
523
525
528
528
526
527
531
534
535
539
539
539
539
539
539
537
534
532
527
522
519
518
516
515
514
514
512
510
509
508
507
505
504
503
500
498
499
499
498
498
498
497
496
497
499
499
499
499
500
499
499
500
501
500
499
497
494
492
492
493
492
492
494
495
495
496
498
499
499
498
498
498
498
497
498
497
496
495
496
497
498
500
502
505
506
508
511
514
516
519
520
519
519
521
521
521
525
529
532
536
542
548
552
554
556
557
558
560
562
565
566
570
580
595
606
617
610
572
516
494
513
540
559
572
578
580
582
585
587
585
583
582
581
580
581
584
584
585
587
586
581
574
569
565
559
555
554
552
550
550
549
549
548
548
551
554
555
557
558
556
553
552
553
552
551
552
550
548
545
544
539
534
529
526
519
512
506
504
501
499
500
501
501
504
509
512
515
517
519
523
522
520
515
512
509
509
511
513
514
516
519
517
515
515
516
515
515
515
515
511
507
506
505
502
501
500
498
496
494
494
492
490
490
492
491
490
490
493
492
491
492
494
496
499
503
507
509
513
516
515
511
509
510
510
509
512
514
515
513
515
516
516
515
514
511
509
507
507
507
505
504
505
502
500
499
499
497
495
495
495
494
494
494
495
496
500
506
510
513
517
521
519
516
516
515
512
509
508
507
506
505
507
507
507
508
511
511
511
512
513
511
508
508
510
517
530
542
556
554
519
461
433
445
471
490
496
497
498
502
505
506
509
511
513
515
518
520
519
517
518
518
515
509
506
502
500
499
500
500
499
500
502
503
505
508
512
515
518
523
527
530
532
534
538
541
545
548
549
550
550
554
555
555
553
552
548
544
541
537
533
530
529
527
526
526
527
528
528
528
529
529
528
527
528
525
521
520
520
519
519
519
520
520
521
521
521
522
524
526
526
526
527
527
525
522
519
516
513
510
508
505
502
499
496
492
487
482
479
477
474
471
471
470
470
470
472
474
475
476
477
478
479
480
480
478
475
474
473
471
470
471
471
470
471
471
471
470
471
472
473
474
477
479
481
483
485
485
486
485
487
487
486
486
488
489
487
486
486
485
485
486
488
489
490
492
494
494
494
497
499
498
497
495
491
488
488
487
484
482
484
484
482
481
482
483
483
481
480
480
480
480
482
481
482
482
483
483
483
485
487
487
486
488
491
502
515
530
541
526
476
425
416
436
459
472
478
482
487
491
494
495
499
503
507
508
511
512
513
516
520
524
525
528
529
528
528
528
528
529
528
528
530
534
534
537
535
533
530
529
526
525
524
526
526
523
522
522
520
517
518
519
517
514
513
511
507
502
500
497
494
492
491
490
489
490
492
493
492
495
497
499
499
501
503
503
505
507
509
509
509
509
509
507
505
506
505
503
504
506
505
504
504
504
504
504
505
505
504
503
503
502
501
500
499
498
497
497
499
498
497
498
500
499
497
497
498
496
494
495
495
493
491
494
494
493
493
494
494
496
498
501
503
504
507
509
511
511
514
514
513
513
515
515
516
517
520
521
522
525
527
529
531
533
534
536
537
540
542
541
542
544
545
545
545
546
545
543
543
544
543
540
539
539
537
535
536
536
534
533
536
536
535
534
536
536
535
532
531
526
522
519
516
513
510
509
508
506
503
502
501
498
496
497
497
496
497
500
503
511
526
541
552
548
511
457
434
447
473
492
501
506
511
516
520
523
528
533
534
535
535
535
533
533
532
528
526
526
525
524
523
524
524
523
525
526
527
528
531
533
534
536
539
541
542
543
546
549
551
553
555
556
555
554
554
553
549
545
542
537
531
526
521
515
510
507
505
501
499
500
499
498
498
499
499
497
497
498
498
496
497
497
494
492
492
491
490
490
490
490
489
488
488
487
485
485
485
484
481
480
479
477
474
473
473
473
471
472
473
473
472
474
473
472
473
475
475
473
475
476
476
477
477
477
477
477
478
478
477
476
477
477
476
477
478
479
477
478
479
479
478
478
479
480
479
481
484
483
484
486
488
487
489
491
494
495
497
499
499
497
496
496
497
496
499
502
503
504
508
511
510
508
510
509
508
508
509
510
511
514
516
516
516
519
521
522
521
520
526
526
523
520
520
530
544
552
556
548
502
441
424
439
467
481
480
479
488
494
490
489
491
490
492
495
497
493
490
489
486
495
495
496
495
492
494
498
498
493
492
494
497
499
500
501
504
506
511
512
513
513
511
522
521
517
519
520
516
511
515
512
507
503
501
497
491
486
483
477
472
469
471
468
466
466
468
469
471
474
477
478
479
481
485
488
485
482
482
482
484
486
486
486
488
491
491
491
490
493
497
493
493
507
501
498
503
505
501
511
508
504
505
503
505
506
508
512
516
517
518
521
524
526
529
528
527
527
527
527
527
526
526
527
527
525
525
526
524
523
524
524
522
522
523
524
523
524
526
528
529
529
530
530
531
531
532
533
533
534
535
535
537
538
539
539
540
542
543
541
540
541
541
540
539
539
538
537
537
536
535
536
538
538
538
537
537
536
536
534
536
545
558
572
587
579
536
479
459
470
489
505
513
515
516
519
521
520
520
522
522
522
524
525
525
524
526
527
528
528
529
530
531
532
534
535
535
535
538
539
539
540
550
562
580
610
635
665
695
728
754
772
782
791
799
806
809
815
812
805
801
793
786
777
768
762
752
744
739
742
743
744
750
750
749
746
744
739
729
721
711
698
687
677
671
666
660
654
648
641
633
627
619
610
601
597
589
571
560
546
527
509
483
462
444
421
409
406
405
408
414
421
422
421
411
393
375
361
349
336
323
310
300
291
283
276
271
264
254
244
238
232
226
223
220
215
213
212
210
208
207
207
208
208
207
208
207
209
211
213
214
214
217
221
225
230
236
241
245
251
258
265
269
274
280
284
288
294
300
305
320
342
361
376
370
330
282
272
294
325
349
363
373
383
390
394
398
404
409
413
418
422
425
429
434
439
443
447
453
457
462
466
472
478
481
486
493
500
504
511
519
528
538
548
559
564
568
576
582
586
588
591
594
595
599
603
606
608
611
613
616
620
623
625
624
624
626
629
632
635
640
645
650
658
669
678
684
692
700
702
705
707
711
714
716
718
720
722
723
725
727
728
728
725
719
710
703
700
695
690
687
686
683
680
680
680
675
670
664
658
653
650
650
649
646
645
645
645
644
642
641
638
635
633
633
633
631
630
626
621
616
615
610
604
602
598
594
587
581
578
573
568
563
560
556
552
550
549
545
540
538
536
534
533
540
555
566
578
575
539
475
436
443
468
487
496
498
497
496
499
502
505
510
518
523
527
529
532
535
538
540
544
544
539
538
538
536
538
542
546
550
553
555
556
555
553
553
554
554
555
558
560
560
560
563
560
555
552
548
543
537
531
522
512
504
497
490
483
478
473
467
462
460
459
458
458
459
460
459
457
455
452
449
445
442
439
435
432
430
427
424
424
425
424
423
424
425
423
421
420
419
416
415
415
414
413
414
417
418
420
421
423
424
422
423
425
425
425
428
429
430
431
435
438
439
440
441
439
435
434
434
433
432
432
432
431
430
431
433
434
437
441
444
444
444
446
447
446
445
446
445
443
443
444
443
442
442
442
442
442
443
444
444
445
450
460
475
488
499
492
448
388
365
379
404
421
428
430
433
436
438
440
443
447
449
449
449
449
449
447
445
445
444
443
445
448
449
451
455
457
459
463
467
470
472
477
483
487
490
496
502
507
511
518
525
529
532
536
539
541
541
542
538
531
523
516
509
503
498
497
494
491
489
486
481
478
477
479
481
483
487
489
491
491
492
493
491
489
487
486
484
486
487
489
489
491
494
496
497
500
501
503
505
510
514
515
517
520
520
519
520
521
522
523
522
521
519
517
515
514
513
513
518
521
523
525
529
531
532
537
540
543
545
547
548
547
543
540
535
533
531
530
530
532
535
538
540
541
544
547
549
550
551
551
551
550
548
545
544
543
542
539
535
531
531
530
528
528
529
527
526
527
532
534
536
541
547
550
557
574
591
605
616
604
556
502
489
509
535
551
557
564
570
569
568
566
566
566
568
569
568
567
567
566
564
563
564
566
565
565
568
568
568
568
569
567
565
565
565
565
565
566
566
565
565
567
568
567
567
568
568
567
566
565
562
557
554
551
546
540
537
533
529
526
524
522
519
517
517
513
508
506
504
502
499
497
495
494
494
495
495
495
494
495
497
497
497
499
498
498
498
500
500
501
502
503
504
503
504
504
502
499
496
495
492
491
492
489
487
485
485
484
481
478
478
478
479
480
482
484
486
489
490
491
492
494
495
494
494
494
492
489
485
482
480
478
477
476
475
472
472
471
469
467
467
467
467
466
468
469
470
472
473
473
474
475
476
473
473
476
475
472
470
471
471
470
470
472
471
470
472
474
475
475
477
479
479
480
485
499
514
528
538
524
475
421
412
433
455
468
473
475
478
482
486
488
490
493
494
495
496
496
496
497
498
501
502
502
503
504
505
506
508
510
511
512
513
513
513
513
516
517
516
517
521
526
528
531
534
535
534
535
535
534
531
529
526
520
513
508
503
497
493
491
489
487
486
484
482
482
482
483
485
485
486
488
489
488
489
491
491
492
494
496
497
498
500
500
499
501
502
502
503
504
505
506
506
507
509
508
507
508
510
511
512
514
515
515
515
516
515
513
515
517
517
517
519
519
518
517
517
517
517
519
520
521
519
519
519
520
518
517
519
522
521
522
523
523
521
521
520
520
520
521
522
522
523
525
525
523
522
524
524
523
524
525
524
523
524
524
524
523
524
525
524
522
521
521
520
519
520
521
519
519
520
519
518
519
519
517
516
516
517
516
516
516
515
515
515
516
517
517
517
519
520
523
533
549
565
579
580
546
485
454
469
497
517
527
535
538
541
545
549
550
549
550
549
548
548
548
549
548
546
546
545
543
540
540
539
537
537
540
539
538
539
539
538
538
539
542
543
545
546
548
549
549
550
552
551
550
551
551
549
546
544
540
534
529
524
520
515
514
513
512
510
511
510
507
505
506
503
501
501
502
503
503
503
504
503
502
502
503
502
502
504
505
505
505
506
506
506
506
507
505
504
503
504
506
505
505
507
506
505
506
505
503
503
503
503
502
502
503
503
503
503
503
502
500
500
502
502
501
503
503
503
503
504
505
505
505
505
505
505
505
505
504
504
504
505
504
503
501
501
499
499
500
501
501
500
501
500
498
496
497
497
495
495
495
492
489
487
483
479
477
475
473
470
465
464
462
460
460
462
462
461
461
462
461
460
461
462
459
456
457
465
478
488
499
490
443
384
365
381
403
420
429
431
432
436
441
443
444
448
450
451
453
457
459
460
463
467
469
470
473
477
479
480
482
486
489
491
494
498
501
503
508
513
516
520
527
531
535
538
540
541
542
545
548
548
547
545
543
538
531
528
524
519
515
513
510
507
506
507
508
508
508
508
507
504
504
505
504
502
503
502
500
498
501
500
498
497
496
495
494
494
494
494
492
491
490
491
490
491
492
492
493
495
498
498
499
500
500
501
500
502
505
505
506
507
508
506
507
508
508
506
506
506
506
506
508
508
507
506
507
507
506
506
508
507
505
506
506
506
506
507
507
505
503
504
505
505
505
505
504
504
505
507
507
506
506
508
508
507
508
508
509
509
511
514
515
517
520
520
517
517
519
520
519
518
518
518
517
519
523
524
524
526
528
528
529
534
537
538
540
544
556
570
584
593
579
529
474
463
482
505
516
515
513
510
513
522
530
538
546
551
556
560
564
569
572
576
581
584
586
590
593
595
596
599
600
599
599
600
600
599
596
595
592
588
585
584
579
577
575
576
576
576
578
578
578
577
576
574
568
562
557
552
545
541
536
529
521
517
516
517
518
521
522
521
520
521
521
521
522
525
527
527
529
532
533
532
533
533
532
533
533
534
533
531
530
530
529
527
527
526
524
522
521
520
518
517
516
516
514
514
513
510
508
507
506
504
504
506
505
502
501
500
498
496
495
497
496
495
495
494
491
489
489
490
489
489
490
489
488
487
487
488
488
488
489
489
488
488
490
489
489
490
491
491
490
491
492
491
493
497
498
499
500
502
501
498
498
498
498
497
498
497
496
497
498
498
498
498
500
500
501
502
503
502
501
501
502
508
523
540
554
558
533
476
431
429
448
472
487
491
494
498
499
499
502
504
506
506
508
510
509
509
510
511
511
511
514
516
516
517
520
519
519
520
523
525
526
528
531
532
531
531
531
528
527
528
528
525
522
521
519
515
512
509
505
500
498
496
494
490
489
488
486
482
481
478
474
473
473
472
472
473
476
479
480
481
483
482
481
480
479
479
480
484
488
490
493
496
499
500
501
502
500
497
496
497
496
495
496
496
495
494
498
500
501
501
503
504
503
502
501
501
498
496
497
499
500
501
503
501
498
494
491
484
479
476
476
473
474
476
476
475
476
478
480
482
484
487
487
487
489
489
489
488
489
489
486
484
483
482
481
480
479
478
476
475
477
477
475
476
477
476
477
482
490
507
524
541
548
525
470
427
425
446
470
485
491
493
496
500
502
504
506
508
508
509
511
513
513
515
516
517
516
516
517
518
516
514
513
510
509
510
512
510
507
506
507
507
508
512
514
516
519
525
528
531
534
536
536
536
538
540
538
533
527
520
514
508
504
501
495
490
488
486
486
487
487
486
485
486
488
489
489
490
490
490
486
486
485
483
480
480
480
482
484
486
485
485
486
488
490
490
492
495
495
495
497
499
498
497
498
496
495
495
495
494
493
494
495
496
496
498
496
494
491
493
492
490
489
489
490
493
494
498
499
500
501
503
505
503
504
505
505
505
509
511
511
510
511
510
509
508
508
507
504
504
505
505
505
506
506
506
508
509
510
508
506
507
509
508
508
510
511
510
512
516
518
519
523
525
526
528
539
555
568
579
580
548
488
452
460
487
507
515
521
526
530
536
540
543
545
549
553
555
556
559
561
561
562
566
568
569
569
570
571
572
574
576
578
579
580
581
581
582
584
587
587
588
589
590
589
589
591
591
590
589
589
587
583
581
579
575
569
564
560
552
545
543
539
535
529
527
524
520
520
520
519
517
516
517
516
514
516
517
518
520
523
524
524
525
528
529
529
531
531
531
530
528
528
528
526
525
526
524
523
522
523
524
524
525
525
523
522
523
522
521
519
519
517
514
511
511
509
507
508
507
503
500
498
497
496
495
496
496
495
493
494
496
496
496
496
494
492
492
493
491
488
488
487
484
482
484
484
483
482
482
482
480
482
484
483
483
484
483
481
481
482
484
484
485
486
488
488
490
493
495
495
495
494
491
490
489
489
487
484
483
484
485
485
486
487
486
486
488
490
490
491
492
492
491
496
511
526
538
547
529
477
425
417
437
459
474
482
485
487
490
495
497
499
501
503
504
505
509
512
514
515
518
520
520
521
526
528
530
532
534
535
536
538
541
543
544
545
547
548
548
551
555
555
556
560
562
562
563
564
563
560
557
554
549
543
538
533
530
525
523
521
518
515
515
515
514
513
514
515
515
515
516
517
516
517
520
521
521
522
524
523
522
524
524
524
525
526
526
526
525
525
523
523
523
524
523
523
524
524
522
520
519
519
518
517
518
517
515
513
514
514
512
511
512
510
509
509
507
504
503
504
503
501
500
501
502
502
502
504
505
503
502
503
502
501
500
502
501
500
501
502
500
499
499
501
501
501
503
505
504
504
505
503
503
505
507
507
507
506
507
507
506
507
508
508
506
506
506
504
503
503
504
502
501
503
503
501
500
500
501
501
502
504
509
522
538
552
559
538
487
441
439
466
494
508
516
523
528
532
534
536
539
541
542
545
547
548
549
551
551
552
551
552
551
550
550
552
553
552
555
558
559
559
561
563
563
564
568
570
570
571
574
575
576
577
579
579
578
577
577
574
571
567
562
556
550
545
539
533
528
524
521
517
515
514
512
510
511
510
508
505
504
502
499
497
496
496
495
494
494
494
493
493
493
491
488
487
486
484
481
481
481
479
479
479
480
479
478
479
479
476
475
476
475
473
473
475
475
475
476
479
479
481
483
485
486
486
488
488
487
486
487
486
486
485
485
483
482
482
483
484
484
485
486
487
486
487
488
486
485
486
487
486
488
491
491
491
493
496
496
495
495
496
494
492
494
495
495
496
497
497
496
497
496
495
494
493
493
491
490
491
493
492
492
494
495
494
495
497
500
500
502
504
505
504
510
524
535
546
548
521
461
419
425
451
472
482
487
490
493
495
499
501
501
502
503
504
503
505
508
507
507
510
510
511
512
515
518
519
521
524
525
525
525
527
530
530
533
536
537
537
540
543
543
544
546
547
547
548
548
548
546
543
539
535
530
526
522
518
513
511
509
505
503
504
503
500
499
501
502
501
501
505
505
504
506
508
508
507
509
511
513
514
516
517
517
517
517
516
515
513
513
513
511
510
509
507
502
498
494
492
492
496
500
503
506
511
516
519
520
522
525
527
529
531
533
534
536
538
539
539
541
543
544
543
545
546
545
545
547
549
548
548
552
551
548
546
545
543
541
540
539
538
536
535
534
534
533
533
535
534
534
537
536
535
535
535
533
530
529
527
525
524
523
522
522
520
521
523
521
521
522
522
520
520
522
528
543
559
572
576
547
489
448
449
470
493
507
511
513
517
519
520
520
522
522
522
521
521
520
517
516
516
515
512
511
512
511
510
513
514
516
520
523
524
525
528
531
532
531
531
532
533
531
532
534
533
533
533
533
531
529
529
525
520
516
513
507
502
498
495
491
486
484
482
480
478
478
479
478
477
479
478
477
478
481
483
484
485
487
489
491
492
493
491
490
489
488
486
485
486
486
485
485
486
487
488
488
488
487
484
483
486
486
486
488
488
486
484
484
482
481
481
482
482
481
481
482
482
481
481
482
482
482
483
484
483
483
484
485
485
486
489
490
490
490
492
493
493
493
494
494
495
497
499
499
500
501
499
496
494
495
496
496
494
493
493
490
489
491
490
489
490
490
489
489
490
491
491
491
492
499
513
526
539
541
509
449
409
412
434
455
467
470
473
478
482
484
487
491
495
498
499
502
503
504
506
508
509
509
510
511
512
513
514
515
518
520
525
529
532
534
538
542
544
547
552
554
555
556
558
558
558
559
559
557
555
552
549
544
538
533
528
521
516
512
507
503
501
500
498
496
497
498
498
497
498
499
500
499
501
501
500
499
501
501
497
496
496
496
495
496
497
498
498
498
500
499
499
501
502
502
501
501
500
498
496
496
494
493
495
496
495
494
494
493
490
489
487
486
485
483
484
485
484
483
484
483
481
482
484
485
488
492
496
499
503
508
513
517
520
524
529
532
534
538
540
542
545
548
549
550
552
554
555
556
556
557
557
556
557
559
557
555
556
554
551
550
549
546
543
542
539
535
530
527
524
520
516
512
510
505
501
500
498
495
494
493
491
490
491
491
490
489
489
492
501
515
530
542
533
490
433
413
430
455
472
479
483
487
491
494
497
499
503
507
508
510
512
511
510
512
513
513
512
515
517
518
521
523
525
528
529
533
536
538
542
545
547
550
553
556
558
560
563
565
566
565
567
567
566
566
566
564
561
558
556
550
545
542
538
534
532
530
528
525
523
522
521
518
518
517
515
512
512
513
512
510
511
512
511
510
510
509
507
506
506
505
502
501
500
498
495
495
495
496
495
497
498
497
498
500
501
500
500
502
504
503
503
505
506
505
504
504
503
500
500
499
497
495
494
493
492
491
493
494
492
492
494
494
494
494
495
492
490
491
493
494
494
495
496
495
494
495
496
496
495
497
495
494
493
493
492
489
488
488
488
488
489
491
490
490
492
492
493
493
495
496
494
494
495
497
497
499
501
504
504
507
508
508
507
511
513
514
515
519
522
523
525
529
530
531
533
537
539
539
540
540
540
543
557
573
586
597
588
541
486
473
492
518
536
545
550
552
553
556
556
556
555
558
560
562
563
565
567
566
565
566
567
566
565
566
565
565
567
568
569
569
571
572
571
571
573
574
573
572
574
574
573
573
573
570
567
565
563
560
554
547
538
529
519
513
507
500
494
492
487
482
477
474
470
467
467
469
469
469
470
472
471
471
471
471
469
468
467
464
462
463
465
466
465
464
465
464
462
461
461
459
456
455
455
453
449
448
445
440
437
435
432
429
428
429
430
432
434
436
437
437
440
443
446
449
452
454
456
458
461
463
466
469
472
473
472
474
477
476
474
473
473
469
465
464
460
457
457
459
461
460
458
458
458
459
460
465
468
467
469
473
475
477
479
482
485
489
492
494
495
498
502
503
504
505
507
508
507
508
510
511
514
516
517
517
518
519
521
521
521
523
523
522
522
528
540
552
565
574
553
499
448
441
464
488
501
504
504
505
508
512
515
518
521
521
521
521
523
524
523
522
521
521
521
523
524
525
524
524
523
521
520
522
522
521
521
521
522
522
523
525
525
525
525
526
526
524
526
526
525
525
525
522
517
513
510
504
499
496
491
487
486
487
488
487
487
488
488
488
489
490
490
489
490
492
493
493
494
497
498
498
500
502
504
504
508
511
513
513
516
516
516
517
518
518
518
520
522
522
522
521
521
518
516
517
518
516
514
514
513
508
503
501
500
498
497
499
500
500
502
503
503
502
503
503
501
500
501
500
499
499
499
498
496
495
495
496
496
497
499
501
500
502
504
503
503
506
508
509
511
514
516
516
517
519
520
521
523
525
524
523
522
521
519
518
520
521
520
519
518
517
516
514
516
518
519
519
520
520
517
516
515
511
507
507
506
504
503
505
505
503
501
501
498
496
495
496
496
496
496
496
497
502
517
531
544
544
511
452
415
420
445
464
470
472
475
476
476
477
479
480
480
482
484
483
483
484
485
485
485
486
487
486
486
488
488
487
489
490
490
491
492
494
497
499
502
505
505
504
507
510
511
513
515
517
517
517
519
519
516
514
512
509
504
502
503
502
501
502
501
500
500
502
503
505
507
510
513
515
518
521
523
524
526
529
531
531
532
532
531
529
528
528
527
527
528
528
527
526
527
527
526
526
528
528
528
531
532
532
532
533
535
534
534
537
538
538
539
542
544
544
544
545
544
543
545
545
545
544
546
546
546
546
548
549
548
549
551
552
550
550
551
550
549
550
550
548
546
548
549
548
547
547
547
544
543
543
542
540
540
542
541
539
539
540
539
538
539
539
537
536
537
537
537
538
540
540
540
538
538
538
537
536
536
536
536
536
536
534
533
535
535
533
531
531
528
526
526
526
525
524
522
523
522
520
520
520
519
518
526
542
554
567
572
545
485
442
445
467
487
500
509
514
518
523
528
530
530
533
534
533
534
536
537
536
536
538
539
538
539
540
540
539
539
539
539
538
540
540
542
544
546
549
551
552
555
557
557
557
559
560
560
561
562
562
561
560
556
551
544
538
532
525
518
514
510
505
502
500
498
494
493
493
491
491
490
489
487
486
488
491
493
495
496
498
499
500
503
504
503
505
507
508
509
510
512
513
510
511
511
511
510
511
511
510
509
510
509
509
507
507
507
505
505
506
506
504
505
506
506
505
506
505
504
504
506
506
506
506
507
507
507
508
509
508
507
508
507
505
504
505
505
504
504
503
503
503
501
501
501
500
501
504
505
506
508
510
510
510
512
511
509
508
508
508
508
509
510
508
507
509
510
510
508
508
509
509
508
507
507
506
505
507
508
509
508
510
511
510
511
513
513
512
511
515
527
541
555
565
549
498
446
439
461
485
500
505
506
509
512
513
514
514
515
514
510
509
508
506
504
504
504
504
505
509
510
511
514
516
518
519
522
525
527
529
532
535
535
536
537
540
540
540
542
542
541
542
543
542
539
536
533
528
520
514
509
502
495
490
485
480
476
475
473
470
468
467
468
469
471
474
476
476
478
481
482
482
483
484
485
485
488
488
488
490
493
495
497
499
503
505
507
510
513
514
516
518
521
524
525
526
526
525
523
524
525
525
525
528
528
526
525
525
523
523
524
525
524
524
525
526
528
529
531
533
534
534
536
536
536
534
535
535
535
536
537
538
537
538
539
538
536
536
535
532
531
530
530
527
526
526
525
522
521
523
523
522
523
525
523
523
525
526
525
525
525
524
524
524
526
527
528
529
531
532
531
532
532
531
529
528
529
528
527
527
526
525
522
521
519
516
513
513
510
507
506
506
503
501
501
505
517
530
545
556
537
485
437
432
455
479
495
501
506
512
518
523
525
529
532
533
533
535
536
535
534
536
536
536
537
538
538
538
537
538
539
540
543
545
547
546
547
549
548
547
548
549
549
549
550
550
549
549
551
550
548
547
547
544
540
538
535
531
528
526
523
521
520
518
517
515
512
512
511
510
510
511
511
510
511
511
510
508
509
509
508
507
508
509
508
507
507
507
504
503
503
502
501
501
501
499
497
497
497
495
495
495
495
494
492
493
494
492
491
491
491
488
487
488
488
487
487
488
488
486
485
484
482
482
482
482
480
481
482
481
478
477
477
475
474
475
477
476
475
476
478
477
476
478
478
474
471
469
467
465
465
467
467
467
467
468
466
465
467
469
468
468
470
471
470
470
471
473
473
474
475
476
476
478
481
480
479
481
483
483
483
485
485
484
484
485
486
488
490
496
501
503
508
512
515
516
517
518
517
518
523
530
544
561
578
591
584
539
478
454
465
488
505
511
513
515
518
518
517
520
523
525
527
528
528
527
526
525
522
519
517
515
511
508
508
510
508
508
510
511
510
511
515
515
513
513
516
517
517
519
522
523
523
525
526
525
523
520
518
514
508
504
499
494
489
487
485
480
477
477
476
474
474
474
474
473
474
474
474
474
475
476
476
475
474
474
473
472
473
472
471
472
473
473
472
472
473
473
473
474
475
475
474
475
476
475
475
476
475
474
475
476
476
474
475
476
475
475
476
477
476
475
477
478
478
479
480
481
480
480
482
482
481
481
481
481
482
482
484
487
489
494
499
503
507
511
514
516
516
517
517
516
516
516
515
513
513
514
513
511
512
513
512
511
513
513
511
512
513
514
514
514
515
516
516
515
516
517
517
517
517
515
515
518
520
520
520
521
521
520
520
521
521
521
521
522
524
532
548
564
576
572
534
474
448
462
491
510
519
525
530
533
535
537
539
537
535
534
533
532
530
533
534
533
533
534
535
535
535
536
537
536
537
539
540
540
542
546
546
547
550
551
552
553
555
555
552
552
553
556
558
560
561
559
556
553
550
544
538
533
527
522
518
516
513
510
508
508
508
506
506
508
508
507
506
505
505
506
507
508
507
507
510
514
514
515
517
518
515
515
516
516
514
513
513
511
509
506
505
503
501
502
503
501
499
500
501
500
500
502
503
501
501
501
501
500
502
503
500
499
499
500
500
501
502
502
502
502
503
505
505
506
507
506
505
504
505
505
503
501
499
496
495
495
495
492
491
493
493
491
491
491
491
490
490
491
492
493
494
495
495
493
492
493
493
492
493
494
492
493
494
493
490
487
487
488
487
490
493
494
495
498
500
499
498
499
499
497
495
495
494
493
493
493
493
490
491
495
496
494
495
493
491
490
496
509
525
540
550
533
481
429
422
444
467
481
488
491
492
495
498
500
503
506
508
507
505
503
501
502
503
505
506
505
506
509
511
512
514
518
518
518
522
524
526
527
530
531
531
532
534
534
533
534
536
536
536
537
537
535
532
529
524
517
508
500
492
482
474
468
463
456
451
449
447
448
450
454
457
460
466
472
476
479
482
485
487
488
491
494
495
497
499
500
502
506
509
511
513
516
519
521
523
526
526
525
524
525
523
520
516
513
510
506
502
499
496
493
492
491
490
488
489
490
488
487
489
489
487
487
486
484
481
480
483
486
487
489
493
497
498
500
502
503
503
504
503
502
501
501
501
500
500
502
504
502
502
504
506
506
508
508
507
506
504
501
500
501
503
504
504
505
507
509
508
509
511
511
510
512
515
516
517
519
520
521
522
522
521
518
517
518
519
516
514
514
513
512
513
515
514
513
514
515
514
515
516
516
514
514
520
532
540
546
545
513
449
408
411
432
450
462
469
475
481
489
495
501
505
509
513
517
520
526
530
533
535
536
537
537
537
539
540
542
543
544
542
541
543
544
545
546
549
551
551
552
554
553
553
557
562
563
564
567
568
567
566
565
562
558
552
548
544
538
534
532
528
524
522
521
519
518
518
520
519
520
522
524
522
521
522
521
519
518
518
515
513
513
514
515
515
516
516
516
516
517
517
517
516
516
517
515
515
518
518
516
516
517
516
516
517
519
519
519
520
521
521
521
522
524
523
525
527
528
527
527
528
528
528
530
534
535
535
537
539
539
538
538
538
537
536
538
538
536
536
536
535
534
532
532
531
529
529
529
529
527
528
528
527
527
531
531
531
532
534
533
531
531
531
530
528
526
526
525
522
520
519
516
514
514
512
510
509
509
508
506
505
509
521
535
550
560
544
493
439
429
450
475
490
497
499
502
506
509
510
513
516
516
517
519
522
523
523
522
523
521
520
521
520
517
516
520
524
527
532
537
538
539
539
539
540
541
542
545
545
545
548
550
549
545
545
543
540
538
536
532
526
518
509
501
491
485
481
476
475
476
478
478
479
483
485
487
490
494
497
499
500
504
507
512
518
526
532
536
542
548
553
558
564
568
569
572
577
578
578
576
572
565
559
554
551
547
545
546
549
552
553
555
557
558
558
561
563
562
564
565
565
564
565
565
565
565
566
567
566
565
565
565
563
561
561
560
558
557
558
557
555
555
554
552
550
549
548
547
544
544
543
540
539
541
542
542
542
544
544
544
544
545
546
546
544
545
542
539
539
539
541
543
544
544
541
541
543
542
539
538
537
535
533
529
529
530
529
530
532
530
528
527
524
519
515
517
527
536
548
547
511
447
409
417
440
456
463
467
467
467
470
471
469
467
468
470
470
471
471
469
466
464
464
462
459
458
459
458
456
458
460
459
458
461
463
464
465
468
469
468
467
468
469
473
478
484
487
489
493
495
493
489
487
486
488
488
486
484
483
482
483
484
485
484
485
485
486
488
491
492
494
498
501
503
505
505
506
508
512
518
523
528
532
537
538
539
542
544
543
541
540
537
532
528
526
527
530
531
532
533
532
532
531
531
531
532
533
532
531
532
530
529
529
530
530
529
525
524
520
517
515
517
520
522
523
527
526
525
525
526
522
515
509
505
502
499
494
487
478
470
465
458
453
454
459
463
467
471
476
480
483
487
491
494
496
498
499
497
496
497
496
494
494
496
496
494
495
495
496
496
499
501
502
512
526
536
542
530
483
425
405
420
445
462
468
472
475
477
476
476
473
465
455
448
442
435
428
423
417
409
404
402
399
395
393
393
391
390
391
392
392
391
393
394
395
397
401
404
405
407
411
414
417
419
422
425
425
427
429
428
426
424
420
415
410
406
402
396
392
391
389
387
388
390
391
392
394
398
399
400
402
404
405
406
408
411
413
417
423
428
432
436
440
442
446
451
458
463
467
473
477
479
482
486
490
494
496
502
507
511
516
522
527
531
536
539
541
541
541
541
539
537
537
538
537
536
537
538
536
536
537
536
534
533
533
535
534
534
535
534
534
533
532
531
527
525
525
523
524
526
525
523
522
524
524
522
523
524
524
523
525
527
526
526
528
529
528
528
530
531
531
531
532
531
530
531
533
533
532
534
533
533
532
533
533
533
533
535
540
552
566
580
592
579
533
480
469
491
520
538
544
547
550
551
552
552
554
555
555
555
558
557
558
557
559
559
558
558
559
557
556
556
556
556
556
558
561
562
562
564
566
566
568
572
574
574
576
577
576
575
576
576
575
573
572
571
567
561
558
553
546
540
536
530
525
522
521
519
517
516
517
516
516
517
518
519
518
519
520
520
518
519
518
517
517
518
517
516
517
518
520
520
518
517
516
515
515
516
515
515
517
517
517
516
519
520
520
521
521
520
518
518
519
520
523
526
530
533
534
539
542
545
547
551
552
553
552
552
550
547
545
545
544
542
544
546
545
545
547
547
546
544
545
543
539
538
536
534
531
531
533
532
531
532
531
529
528
528
527
524
523
523
522
521
520
520
519
514
511
509
506
503
503
506
506
507
510
512
509
506
504
502
499
497
495
493
489
488
488
486
484
485
485
484
484
486
488
489
489
490
493
503
516
530
542
533
490
432
410
427
453
468
473
475
479
481
482
485
488
491
493
494
496
498
497
499
500
500
496
497
499
500
499
501
503
503
502
502
501
499
499
499
498
494
492
493
494
494
496
500
503
508
514
518
521
521
522
522
520
519
520
520
520
519
518
516
513
511
510
509
509
509
508
507
505
506
509
513
517
522
524
525
526
528
528
527
526
525
523
521
520
520
519
517
517
517
515
514
515
515
513
511
510
508
506
505
505
504
502
501
501
499
497
497
498
498
497
499
498
497
497
498
499
499
500
502
503
502
502
503
503
502
501
501
498
496
494
493
490
488
489
489
488
487
488
488
487
487
488
487
487
489
491
490
490
493
494
494
494
495
494
491
489
489
488
485
483
483
481
477
473
472
471
469
468
467
465
462
461
460
459
458
460
462
464
465
467
468
468
472
474
479
492
509
526
535
516
465
419
418
442
471
491
502
509
518
524
528
531
534
535
534
535
538
541
542
543
545
547
547
550
552
550
550
552
552
551
552
553
553
554
555
558
559
561
565
568
571
571
574
578
578
579
582
582
579
576
575
571
565
559
553
546
539
534
530
525
523
522
521
519
517
518
519
519
520
520
517
514
515
516
517
518
521
523
523
521
521
516
510
505
503
503
501
498
498
498
496
494
495
494
492
493
494
493
493
496
496
496
495
498
499
500
502
503
503
501
499
498
494
490
488
486
483
479
478
475
473
471
470
468
465
462
461
460
458
458
458
457
454
452
451
448
444
443
442
440
437
436
435
432
429
428
428
426
425
427
429
428
429
429
430
430
431
431
430
430
433
435
435
436
439
442
444
445
448
450
452
454
457
459
462
465
468
471
474
484
502
517
531
534
502
443
410
421
447
467
477
483
488
491
496
500
504
504
507
509
510
511
515
519
522
524
528
526
525
518
517
520
524
529
535
541
544
550
556
560
563
568
572
572
572
574
575
576
578
581
582
582
581
582
580
578
575
573
567
561
557
553
547
542
540
538
535
533
534
535
535
536
538
537
535
535
535
536
536
536
537
538
537
540
541
542
541
543
545
546
546
549
551
553
554
556
557
555
553
552
549
547
547
547
547
547
549
549
548
548
550
544
540
533
529
530
530
531
531
530
528
528
527
525
524
524
523
520
518
517
517
514
513
512
512
509
507
506
502
497
494
493
489
485
483
481
479
479
481
482
484
485
488
490
491
493
495
497
498
500
503
505
504
506
507
506
504
503
502
500
499
500
501
502
504
507
507
508
511
513
513
511
513
514
511
508
504
500
496
493
491
488
485
482
479
476
472
469
467
465
464
465
470
483
496
511
519
493
435
390
392
415
436
448
452
454
457
462
463
464
467
469
470
472
474
475
475
476
477
477
476
477
478
480
480
483
485
487
489
490
493
495
496
499
504
507
510
516
520
524
528
532
534
536
537
538
538
537
537
537
534
529
525
522
516
510
507
503
499
495
494
493
490
488
488
486
485
484
485
485
485
487
488
488
488
489
490
488
489
490
491
491
491
492
492
491
492
493
494
495
497
500
500
501
504
505
505
505
507
508
509
509
511
512
512
513
514
514
513
513
514
514
515
515
516
515
514
514
514
513
511
511
512
512
512
513
514
513
513
513
511
510
509
510
509
507
507
508
507
507
508
509
508
508
509
509
508
508
509
509
508
510
512
513
513
514
515
514
514
515
514
514
517
520
521
521
521
523
522
520
518
518
518
516
515
514
512
510
510
509
509
508
510
511
509
507
507
507
506
507
511
517
532
550
565
572
548
493
449
447
470
495
510
518
524
529
533
534
536
538
538
538
539
541
541
541
541
541
539
538
540
540
540
541
542
543
542
542
544
545
545
546
548
551
553
557
561
563
565
568
570
571
573
576
577
577
577
578
575
570
566
561
555
547
542
537
531
525
523
521
517
514
513
513
512
511
511
513
514
516
518
519
519
520
521
522
521
523
525
524
524
525
527
526
526
527
527
525
523
524
523
521
521
522
521
520
520
521
520
519
520
520
519
518
520
519
518
517
517
515
513
513
514
511
510
511
512
512
513
514
514
513
512
513
512
508
507
507
508
508
509
511
510
510
513
513
512
511
512
512
511
511
513
514
514
514
516
517
516
515
518
518
518
519
520
520
521
523
523
522
522
523
524
524
522
523
523
522
520
520
520
518
517
517
516
515
516
515
513
511
516
529
540
551
558
534
474
425
419
434
452
467
477
485
493
500
507
514
520
527
533
536
539
544
547
549
551
554
556
557
557
559
559
558
558
558
556
553
552
552
551
550
553
554
554
556
559
560
561
563
565
566
567
567
566
563
560
557
553
547
540
535
531
525
521
518
516
513
510
510
511
510
511
510
508
506
506
508
508
508
510
510
510
511
512
511
508
507
506
505
503
502
503
502
500
501
503
502
500
501
501
501
501
502
502
500
501
501
501
500
499
500
499
498
499
500
500
501
502
503
503
505
507
509
510
511
514
516
517
520
524
526
525
526
529
528
527
529
530
529
529
531
531
531
530
532
532
530
529
530
531
530
530
532
531
529
529
529
528
527
528
527
526
525
526
526
524
523
523
522
520
520
521
520
519
518
519
519
520
522
522
521
521
522
521
517
515
515
514
511
508
509
508
505
506
505
502
497
496
497
497
497
498
499
498
497
500
513
525
537
548
530
475
417
410
429
450
462
464
459
451
444
438
431
424
420
414
408
402
397
393
388
384
382
379
376
375
374
372
369
370
371
371
370
372
373
372
373
377
379
380
383
386
388
391
396
401
402
404
407
408
408
410
412
413
412
410
410
407
402
400
399
397
396
396
397
397
397
400
403
404
405
407
408
409
411
415
417
419
422
424
426
429
433
437
440
441
443
446
447
450
455
459
461
463
467
470
472
475
480
483
486
490
494
497
500
504
508
511
515
520
523
525
527
530
533
534
535
537
538
539
540
543
545
545
546
548
546
544
546
548
549
550
552
553
554
554
555
555
553
553
556
557
557
561
564
564
564
565
565
565
565
566
566
566
565
566
567
566
565
566
566
564
565
567
566
565
566
566
565
565
566
568
568
569
571
574
574
572
572
571
569
568
567
566
563
564
565
565
564
564
565
565
563
564
565
563
562
562
562
563
575
592
604
614
603
554
497
482
501
526
543
550
556
559
561
563
566
568
567
568
569
569
569
569
570
570
569
570
570
571
570
572
574
573
573
574
575
574
573
574
575
573
575
578
580
580
582
585
586
586
587
587
586
585
584
581
577
573
569
563
556
549
545
541
536
531
530
526
523
522
521
518
517
519
518
517
516
515
514
510
508
507
506
504
504
505
504
503
503
504
502
500
499
499
498
499
500
500
498
499
500
501
500
500
500
499
498
499
500
499
498
498
499
499
501
503
504
505
505
507
508
508
509
510
509
508
509
510
509
507
508
507
506
506
508
508
507
506
507
507
507
506
506
504
501
499
500
499
498
498
498
496
494
494
493
490
487
486
485
483
481
481
481
481
482
484
483
482
482
483
480
478
474
472
474
476
479
481
480
481
484
485
484
484
486
486
486
487
488
486
485
485
485
484
482
482
481
479
477
479
490
503
519
535
523
475
424
417
438
460
473
479
482
485
490
495
499
500
503
506
507
510
513
517
521
524
528
530
532
534
535
536
536
537
539
539
538
540
541
541
543
546
549
549
552
553
554
556
557
560
560
560
561
562
560
559
560
560
556
552
550
544
539
535
531
526
521
518
516
514
512
511
512
512
511
512
514
514
515
517
518
519
519
519
518
516
516
505
488
465
442
423
406
387
378
369
365
365
370
372
375
378
382
383
387
394
398
397
396
397
400
409
421
437
453
463
474
487
504
522
538
555
568
576
580
582
583
587
594
602
610
616
622
628
631
634
637
639
640
638
638
637
635
629
625
619
610
603
595
588
576
566
561
555
550
545
539
531
525
520
514
509
505
505
504
503
505
507
510
512
518
524
528
531
532
529
523
522
522
520
517
514
517
519
521
524
529
533
538
542
546
546
546
548
550
554
557
559
561
563
564
568
570
569
571
573
573
572
572
573
572
570
570
568
565
564
562
559
555
557
569
581
594
599
573
514
469
472
499
519
523
522
519
517
513
511
508
506
503
503
503
501
500
500
499
497
497
496
496
496
496
497
499
503
510
518
525
530
535
541
542
542
544
544
545
547
549
550
550
551
552
551
550
550
550
548
545
541
536
531
526
521
517
511
508
509
508
507
506
506
505
504
505
505
504
503
505
507
506
508
514
520
525
529
530
529
522
514
507
500
492
486
481
476
471
471
472
470
469
470
469
466
464
464
464
464
464
465
466
465
464
463
465
467
467
468
465
464
463
463
460
459
460
458
457
457
460
462
462
462
461
461
459
460
460
465
471
479
487
491
495
499
500
499
496
493
487
481
477
474
471
469
468
462
453
440
429
419
410
403
397
392
385
382
379
374
371
370
372
377
384
396
407
417
425
435
446
453
461
471
481
488
497
506
514
520
525
533
537
537
536
534
533
531
526
520
508
499
495
491
489
488
489
493
494
495
499
509
526
542
557
558
525
467
438
449
474
497
509
514
520
526
530
535
537
542
546
545
543
540
533
527
522
517
511
507
505
504
501
499
498
497
497
501
510
518
526
535
544
551
558
569
581
591
601
606
611
608
599
591
585
576
566
558
550
539
529
521
510
499
491
484
477
472
468
465
460
457
455
455
454
451
451
451
449
448
449
449
447
447
447
446
445
445
446
447
449
452
455
458
460
463
466
468
471
474
476
477
479
482
484
485
489
492
494
494
495
497
499
499
501
504
503
504
507
507
507
509
512
513
514
517
518
518
519
521
523
524
524
527
530
531
534
536
538
540
543
550
555
558
559
562
565
567
569
571
571
568
565
560
556
556
560
563
565
568
572
575
575
576
578
580
579
579
580
578
576
577
577
576
574
574
574
573
573
573
572
569
567
565
562
559
558
556
553
550
550
550
548
547
548
548
546
546
548
550
549
549
550
551
555
568
583
597
604
584
530
480
476
502
527
539
546
555
563
568
572
578
581
583
586
588
588
581
575
563
549
539
532
526
517
510
505
500
494
490
487
488
490
498
509
518
526
533
541
548
553
560
565
571
575
581
580
577
568
557
546
536
525
515
504
492
482
473
463
453
446
439
431
424
419
414
408
405
402
398
395
394
395
394
393
393
395
395
395
397
398
398
396
397
397
396
396
396
396
397
397
398
399
399
401
403
404
404
406
407
408
408
410
412
413
414
417
420
421
423
426
429
430
433
437
438
439
442
445
445
447
450
455
465
479
493
507
517
528
540
548
555
561
570
576
581
588
593
596
599
602
604
604
604
604
604
602
598
597
596
592
590
590
591
590
591
593
594
593
593
589
581
566
555
545
534
524
518
511
503
496
492
489
484
481
478
475
473
472
470
471
475
484
492
500
505
513
521
527
531
537
542
545
549
554
558
560
563
566
568
571
583
601
614
625
619
575
516
496
514
541
559
568
572
575
576
578
581
582
581
582
584
584
583
584
584
583
582
583
582
581
580
581
580
577
574
574
571
567
566
565
563
561
562
561
559
557
557
557
557
557
558
558
556
555
554
553
548
544
541
535
528
523
517
510
504
500
496
492
489
486
485
484
483
483
483
482
483
484
484
483
484
484
483
484
485
486
488
489
492
494
495
496
499
501
502
504
509
511
514
521
528
534
540
546
550
553
556
561
566
568
571
574
576
575
575
576
574
571
569
565
559
552
546
543
536
529
525
523
520
518
520
519
518
519
521
522
523
524
524
523
519
516
512
507
502
501
499
497
495
496
497
496
497
499
500
499
498
498
498
497
501
506
508
510
512
513
511
510
511
510
509
511
514
513
512
511
509
507
502
499
498
497
494
492
492
489
493
507
520
531
533
501
442
404
411
436
455
462
465
465
463
460
459
458
455
451
451
450
449
451
452
455
458
460
465
469
472
475
478
480
482
485
489
491
492
494
496
497
498
502
506
508
512
516
520
521
525
529
529
527
525
525
524
521
518
513
507
502
499
495
490
485
482
478
474
473
474
473
473
473
476
477
479
482
485
484
484
486
487
488
489
493
496
497
499
502
503
502
504
507
509
511
512
514
513
511
512
512
510
507
509
509
509
509
510
511
510
508
508
505
502
500
497
492
486
482
479
475
473
475
476
478
481
486
489
491
493
494
494
492
489
486
484
480
481
481
482
481
482
483
484
487
492
495
497
500
503
504
505
508
511
513
515
518
520
520
519
520
520
518
518
520
521
520
519
519
518
514
514
514
513
511
510
509
508
507
508
508
508
509
509
510
509
508
509
509
507
505
505
504
503
503
502
501
500
501
502
503
502
504
505
505
504
507
509
509
509
511
513
522
536
550
563
554
509
454
438
458
486
500
503
503
505
507
507
506
505
503
503
505
507
507
505
503
503
505
505
507
508
508
509
512
513
512
511
513
513
511
513
515
515
515
516
521
525
531
539
540
538
532
528
524
520
518
516
514
511
512
515
515
514
512
512
511
509
510
512
514
513
514
512
507
500
494
489
482
476
473
471
467
464
464
462
460
459
459
458
456
455
454
452
451
451
450
448
447
446
445
443
443
442
440
437
437
438
437
436
436
436
436
436
439
439
437
438
440
440
439
440
442
443
444
446
448
449
450
452
454
455
457
462
468
473
478
485
490
494
499
504
508
511
515
519
523
527
530
535
537
537
536
535
531
527
519
507
495
489
488
492
497
502
507
511
515
520
524
526
528
531
532
532
531
532
530
527
525
524
521
518
516
517
516
513
512
512
512
509
508
507
503
500
499
495
491
489
489
488
485
485
490
496
503
511
519
526
530
535
540
542
545
548
550
548
550
560
575
589
602
601
565
507
483
499
525
545
555
560
562
563
565
567
568
569
571
572
570
571
572
572
569
568
569
567
564
563
563
561
560
560
559
557
555
554
554
553
555
558
560
560
562
565
567
568
571
575
576
576
577
577
575
570
567
562
553
544
534
522
510
500
493
485
477
471
466
461
456
454
452
449
446
445
445
442
439
440
439
438
438
440
440
439
440
442
443
442
444
447
451
458
468
475
481
487
494
501
504
510
515
520
524
528
531
533
534
536
537
537
538
540
541
541
541
543
544
543
541
537
531
525
519
515
511
506
503
501
497
494
493
491
488
486
485
484
482
482
482
482
480
480
481
481
480
481
482
482
481
480
481
480
480
481
482
483
483
485
486
488
488
490
491
492
494
496
498
500
502
504
506
506
507
508
506
505
505
505
502
500
499
500
499
500
502
503
501
502
503
503
503
504
504
503
503
508
520
534
548
559
545
497
444
434
455
479
493
500
504
506
510
515
518
520
523
525
526
526
528
529
528
527
529
531
530
530
533
534
534
535
538
538
538
539
542
542
542
544
545
545
546
548
549
548
549
552
552
552
554
555
555
554
553
552
548
545
545
545
545
544
545
544
543
542
544
545
544
544
545
545
543
541
538
533
528
526
523
519
516
515
512
509
507
507
505
503
502
502
501
500
499
499
499
497
497
497
496
495
496
494
493
492
493
492
491
489
490
490
488
488
489
489
488
488
489
489
488
489
489
487
487
488
489
488
489
490
491
489
490
491
491
491
493
494
494
495
496
497
496
496
497
498
497
496
498
497
496
497
498
497
495
495
494
492
492
492
492
492
490
490
490
488
489
490
491
490
492
495
495
494
495
497
496
495
497
499
498
497
498
497
494
492
493
493
492
493
494
495
496
497
498
499
499
500
500
500
498
499
499
498
498
500
502
502
503
504
505
504
505
506
506
507
517
532
544
556
554
519
458
428
443
471
489
497
502
506
509
512
516
519
520
524
526
528
528
529
531
529
528
529
529
528
528
530
531
531
533
534
535
535
537
539
541
542
545
547
547
548
551
553
554
557
560
562
563
563
563
563
560
558
557
553
549
546
542
537
531
529
525
522
520
519
518
517
517
518
518
517
519
520
520
519
519
520
519
518
519
520
519
519
519
520
520
520
521
521
521
522
523
523
521
522
523
522
521
522
522
520
518
518
518
517
516
517
519
518
518
520
520
519
519
520
518
516
516
516
514
513
514
514
513
512
513
514
512
511
513
514
513
514
515
514
513
514
514
514
512
512
512
513
512
513
514
513
513
516
517
517
518
520
520
520
521
521
521
521
521
520
520
520
521
521
518
517
518
517
515
515
516
515
514
514
514
513
512
513
512
511
511
513
514
515
517
520
519
516
516
516
515
514
513
513
512
510
510
510
508
507
507
508
507
507
510
510
508
509
513
526
539
553
562
545
492
439
429
447
469
484
492
497
501
508
517
526
533
540
545
548
549
552
553
552
553
554
552
551
550
550
547
546
546
544
541
541
541
539
538
536
537
537
537
536
537
537
538
540
542
541
542
544
544
544
542
541
538
534
533
531
526
520
515
511
504
496
492
490
490
490
492
493
494
495
497
498
499
498
501
501
501
500
501
499
497
498
498
497
497
497
498
495
495
497
498
498
498
500
501
500
499
498
496
494
494
495
494
493
492
491
486
481
478
475
471
468
466
463
459
456
455
451
447
444
440
437
434
432
430
427
426
425
425
425
424
425
426
425
426
426
426
426
427
428
427
427
428
430
431
431
434
437
437
439
444
447
447
449
453
454
456
460
464
465
465
470
473
475
475
479
482
483
484
486
488
489
490
492
493
493
493
494
494
495
496
498
501
502
505
512
525
539
555
564
544
492
446
442
464
491
505
512
517
521
525
529
530
532
532
533
534
536
536
536
535
536
536
535
535
537
537
537
538
541
542
543
546
550
553
558
567
575
581
588
595
601
605
608
612
615
616
618
621
621
619
619
619
615
612
609
605
601
596
593
588
584
583
584
585
583
583
584
585
583
585
586
585
584
586
587
587
588
589
588
586
585
584
584
582
580
581
578
574
570
569
566
564
561
560
556
554
556
556
555
556
557
556
553
550
549
547
544
545
545
545
545
547
548
548
548
548
546
543
540
540
540
536
535
538
538
539
540
541
539
535
533
531
530
531
532
532
528
526
525
522
522
524
527
528
526
527
528
526
524
523
521
517
513
510
508
504
499
497
494
490
488
490
492
495
500
503
505
503
502
503
503
502
505
509
515
520
526
528
529
526
522
516
510
507
507
502
498
497
495
493
491
490
490
489
487
488
489
490
497
513
527
539
543
517
460
422
432
466
493
506
516
526
533
539
545
551
554
557
561
563
561
559
555
549
544
539
536
536
537
539
542
545
545
548
551
551
551
553
555
555
553
554
553
553
555
558
559
561
564
567
569
569
569
568
566
562
559
555
546
539
532
524
515
507
502
497
492
489
484
477
466
455
445
436
427
418
408
391
373
357
342
330
320
313
307
304
306
314
324
331
336
332
325
318
314
314
316
324
334
341
346
353
360
366
373
383
398
413
426
439
450
460
472
484
497
507
519
532
543
549
550
548
545
546
549
558
567
572
577
583
587
593
600
606
610
609
609
606
602
598
594
589
581
574
567
558
550
541
534
527
526
526
526
522
519
520
521
521
522
524
526
528
531
535
537
537
539
541
543
544
546
547
544
542
544
545
544
543
544
543
540
537
539
539
538
537
539
538
536
536
537
537
537
545
560
572
581
580
549
492
457
464
487
507
518
524
526
527
531
534
534
533
534
534
533
532
533
533
531
530
530
530
528
527
525
520
510
504
497
493
489
489
489
489
492
495
497
499
501
505
510
513
515
515
517
510
506
506
504
500
501
498
497
493
488
484
478
476
476
475
475
474
477
482
486
492
497
499
501
505
509
512
515
518
517
515
514
516
517
519
519
519
519
519
519
520
522
521
520
522
523
525
528
529
527
525
524
522
520
519
520
520
518
517
519
521
521
524
527
526
525
527
525
522
513
504
496
487
478
471
465
460
453
448
443
437
432
429
425
421
418
416
412
406
404
403
402
403
406
409
410
411
415
418
419
421
424
427
430
433
438
442
445
450
453
456
461
467
472
477
479
483
484
484
483
483
484
484
486
487
486
486
487
487
486
485
486
488
490
493
496
498
498
499
501
503
512
527
542
552
544
503
446
421
435
462
480
488
493
497
502
507
510
515
519
522
525
528
530
530
532
533
533
531
528
525
523
522
523
524
522
522
524
525
526
527
530
530
530
532
534
535
537
538
541
540
539
537
537
535
531
530
529
527
526
525
521
515
510
507
504
499
496
493
490
487
487
486
483
480
479
477
474
472
472
470
469
470
470
468
468
466
465
463
463
464
465
465
464
466
466
463
458
457
456
456
458
460
461
461
463
466
467
467
469
470
471
471
473
475
474
475
477
479
479
481
484
487
491
494
497
500
501
504
508
510
512
515
517
518
519
524
525
524
525
527
529
530
534
538
541
543
546
549
551
553
557
560
561
564
567
568
568
569
570
570
571
570
571
571
570
571
574
574
573
574
575
574
574
576
578
578
578
578
578
576
574
575
573
571
571
569
563
555
550
546
541
536
535
534
533
533
536
540
541
542
543
542
544
557
573
586
594
580
529
469
450
463
481
488
486
484
481
477
474
473
470
467
465
464
464
464
467
472
477
483
490
497
502
506
510
514
516
518
523
524
526
527
529
531
531
533
535
537
538
541
543
545
547
550
551
551
552
550
549
545
542
539
535
529
525
521
515
507
498
490
483
475
470
466
462
458
456
455
451
448
447
444
442
444
447
451
449
447
447
444
442
442
442
440
438
439
439
438
437
438
439
438
439
441
441
441
442
444
444
445
448
449
449
450
451
452
452
453
455
456
454
455
457
457
458
459
461
461
461
463
464
466
468
471
474
475
476
478
480
481
482
486
488
488
490
492
493
493
495
497
499
503
508
514
516
516
518
520
520
521
524
526
525
527
530
531
528
527
526
526
526
527
526
525
523
523
523
522
522
523
523
522
521
521
520
520
521
523
521
519
520
520
521
522
524
527
527
529
531
532
531
531
531
531
529
532
542
555
566
575
566
523
467
447
462
484
501
512
517
519
521
526
527
527
527
529
528
526
526
525
524
522
523
523
523
521
522
523
521
520
521
521
519
519
521
523
524
526
529
530
531
533
535
536
537
539
542
541
542
543
543
540
538
536
531
526
522
518
513
508
505
503
500
497
497
499
497
496
498
498
497
497
499
499
499
501
502
503
503
506
508
509
509
514
517
520
525
534
539
543
551
559
564
568
571
576
582
585
589
594
597
597
600
604
605
606
608
608
608
608
610
610
610
611
611
610
611
610
611
610
608
607
607
607
604
603
601
599
598
598
599
598
598
597
597
595
594
595
591
586
582
578
572
564
559
553
546
543
542
539
537
535
535
533
532
531
532
531
530
529
528
527
525
524
522
518
514
510
505
501
498
497
495
492
490
490
487
484
484
484
483
482
482
483
483
485
497
513
527
537
527
483
427
411
431
456
471
479
484
486
487
491
495
497
497
501
505
504
499
493
487
481
479
481
482
483
486
490
493
496
498
500
502
503
506
509
511
513
518
521
523
527
530
534
533
534
536
537
535
535
536
534
530
529
526
521
516
512
506
501
496
494
491
487
486
485
483
482
482
483
483
482
483
483
482
482
484
486
487
490
495
498
499
503
505
507
509
510
512
513
513
516
518
517
516
515
516
516
517
519
521
520
520
523
524
524
526
529
531
532
533
533
532
532
535
536
536
536
538
537
536
535
536
534
533
532
533
532
530
531
531
530
527
523
517
504
493
487
477
467
457
449
441
430
423
414
407
398
390
385
379
371
367
365
362
362
364
364
361
358
357
356
354
353
353
353
352
352
354
355
356
358
360
361
363
365
367
368
369
371
373
375
381
394
411
427
445
463
477
492
508
525
539
545
548
546
544
548
566
576
588
592
567
508
466
470
495
512
518
519
524
531
536
542
543
544
543
546
551
551
560
567
584
604
630
661
701
744
793
826
867
867
878
889
908
906
916
903
888
850
850
807
831
858
849
891
880
898
932
947
956
943
948
956
958
933
941
971
975
973
975
951
972
971
937
932
938
943
947
945
948
894
789
727
704
693
680
666
652
633
632
617
603
603
556
522
519
520
552
595
645
677
710
731
721
712
684
675
674
705
763
747
796
765
775
797
835
827
810
844
855
837
840
810
764
747
803
869
939
939
939
940
939
938
939
938
937
939
938
937
939
937
937
937
937
936
937
938
936
937
938
937
935
938
937
937
938
937
937
938
937
936
937
937
936
937
938
937
937
938
937
936
938
937
937
938
937
937
938
937
936
937
938
936
937
938
937
937
938
937
937
938
937
937
938
937
937
938
937
937
937
938
937
937
938
934
905
898
883
867
843
782
688
614
589
585
581
569
550
526
502
480
460
437
413
393
372
349
326
307
287
265
245
